0,1,2,3,4,5,6,7,8,9,10,11,12,13,14,15,16,17,18,19,20,21,22,23,24,25,26,27,28,29,30,31,32,33,34,35,36,37,38,39,40,41,42,43,44,45,46,47,48,49,50,51,52,53,54,55,56,57,58,59,60,61,62,63,64,65,66,67,68,69,70,71,72,73,74,75,76,77,78,79,80,81,82,83,84,85,86,87,88,89,90,91,92,93,94,95,96,97,98,99,100,101,102,103,104,105,106,107,108,109,110,111,112,113,114,115,116,117,118,119,120,121,122,123,124,125,126,127,128,129,130,131,132,133,134,135,136,137,138,139
0.5289424633112649,0.5693598622706385,0.5050523695697203,0.482884328484179,0.44409765003876295,0.4860996039163442,0.4043556663965557,0.37166092988668364,0.378268493061187,0.41424009654661864,0.4504546332722409,0.4741335359527298,0.4704108728819916,0.49305746519813987,0.5508863738605858,0.5878717344670498,0.5676414095939935,0.6371213652611601,0.6725790912828321,0.7220451860799899,0.7363851335914913,0.7126670456805269,0.7003439854816943,0.7338231561705921,0.7360929527506518,0.7261059178447763,0.7184902773679905,0.7380648742596826,0.7300940977545141,0.7233030270572162,0.7510659763641514,0.7347696001755408,0.7478954981740099,0.7231642520569612,0.6600654627006781,0.67582215682944,0.6721219169766592,0.6929078601842003,0.7236368352838937,0.7743659910535489,0.8047607459587404,0.795556585218157,0.7476313764257929,0.8080048935534989,0.7753146144047817,0.7512695372293272,0.7156233774672391,0.7209950770517374,0.7411366488084568,0.759147946209219,0.7153769295334964,0.6725136434644609,0.6520685272891177,0.6463654561238558,0.6367082194345274,0.640826237897448,0.6453133124462225,0.6606954503226506,0.7302777582365695,0.7365841880500167,0.7188364113477802,0.7036234726116013,0.7189003875763935,0.7448708346426804,0.7328442929762753,0.6749152942033494,0.6618962055206624,0.7059798586511283,0.7428872879862976,0.7529380458456332,0.7579644543882245,0.7175904010206291,0.6698633751782778,0.6724015499825226,0.7217788037498749,0.7390747663691741,0.6892279255886842,0.6789725301323019,0.7038423655016199,0.7520026192471272,0.7814979019038176,0.7656951525903275,0.6850081320816082,0.6476155699294344,0.6103645222542152,0.5977780010379017,0.6254723920040381,0.6611344932415598,0.6749987436357906,0.6705974220189758,0.6442963118786335,0.6454823161819196,0.6560329089329185,0.65969848230922,0.62645081149527,0.6239312705447413,0.6678463560114192,0.6849075026996019,0.6796169298883734,0.606639183366479,0.584031798840182,0.5708266821338901,0.5269427177112058,0.48667537360058155,0.5304331035451629,0.5297751894430842,0.5720463409729977,0.6225888340572722,0.6472720556302489,0.6865644358922584,0.6796727713061619,0.6014681042715868,0.556345468388609,0.5533893301822096,0.5198369806912552,0.5734476638631232,0.6325431496155727,0.6699963907668863,0.6593639240149521,0.6637060019897421,0.647313089603703,0.5850228548494836,0.5309524884718052,0.49639939647986514,0.48940084902404624,0.5310394415424976,0.5613410636299043,0.5173982795630808,0.42040196559426946,0.35957898899767826,0.2807711362601737,0.23170299426315993,0.18929974967811758,0.10481621370445993,0.09627658719966914,0.1450899723069038,0.24083198294483654,0.3948880904902815,0.3857848835911907,0.4157735070952022
0.48281789102584716,0.5276315103823224,0.47910256312536287,0.4815017530676826,0.4310541900936518,0.46195584252515737,0.39644051839968875,0.401503288663679,0.43736470891598406,0.47980260158812404,0.5375756853597855,0.5614492664909115,0.5143869606244434,0.5137584566240787,0.5865617800303844,0.633602367594294,0.6008056181324255,0.6504804410631475,0.6726026519714619,0.7212690021071217,0.7382740189747539,0.7228214946629771,0.7084390153178636,0.7351695249515817,0.7484878767627537,0.7480078772384006,0.737524732632039,0.7544859546789354,0.7445440812437236,0.722017665886096,0.7379060148083667,0.7358375183186425,0.7551297060676381,0.7204955347476475,0.6605727684532688,0.6770062694290347,0.675694714159539,0.7051388006642851,0.7274092951972567,0.7822613214580687,0.8189325384799816,0.8099186748478939,0.7693384927908155,0.8319442867554562,0.8001802345892118,0.7848953589775587,0.7300742684503579,0.7319147720606256,0.7703944134902896,0.7805210599077048,0.7269255947125717,0.6884838141053248,0.6668226009529203,0.662751597573205,0.6523741039097615,0.6454664453721537,0.6511691643574985,0.6756407143703465,0.7402401987552713,0.7327451127733009,0.7130399006977035,0.7147160618936719,0.7260355215283868,0.7325842136696138,0.7285914913570102,0.683877314688228,0.6651231344638562,0.7067071043937229,0.7387207118968364,0.7514226620680216,0.7650032440595393,0.7144666916067491,0.6681526918002824,0.6783790684838058,0.7155810078470953,0.7403504097710071,0.7046474686831975,0.6753383651574504,0.6808497650701066,0.7323302184197523,0.7620008886568786,0.7438009952897247,0.6804904851842838,0.6520110124576832,0.6039082732834822,0.5916533927583525,0.6277758801371346,0.6530946074406242,0.6568294924528605,0.6586796866281726,0.6369552796355146,0.63881320790021,0.645697635172865,0.6441054883718668,0.6160955152696448,0.6140562644828869,0.6540076742094011,0.680486427242094,0.6820747589523583,0.6059087173494176,0.5802172929601599,0.5651870254317559,0.5222261859336348,0.47998785076871747,0.5271132094857918,0.5322936005303004,0.5694970836074336,0.6228461590947185,0.650329146836742,0.6715184087851538,0.6597934398000864,0.5967442026654285,0.5442147765820761,0.5161604826093809,0.4793783704055689,0.5514838317011622,0.6247750985289784,0.6641055578805333,0.6423181669849498,0.6413713019179161,0.6275099357920884,0.5657332761035134,0.5035138039445273,0.44944188907840044,0.4452581184554717,0.5117438681039617,0.5482640751385752,0.5022230635566088,0.42057705116460653,0.3754206544226858,0.29752107690941,0.2393319553885762,0.1989443700443988,0.12045596992801894,0.09550016601220557,0.1331346473329747,0.2116676332877624,0.3551457862228118,0.38594159466126765,0.4138599174616302
0.4989391670315876,0.5276090318025357,0.44521653776858433,0.439862423440456,0.38798646462163733,0.4094236066480907,0.3861716831165266,0.389427328781355,0.4477643359592402,0.5297364058873825,0.5772641065596651,0.5630822455473277,0.5237968448305002,0.5761453886269835,0.6590912582229564,0.6745729657817712,0.6188405129107484,0.6606341135576186,0.6797772644464529,0.7261446146584106,0.7378069485688801,0.7185244168139706,0.6992813610219288,0.7240871407316418,0.7346871500256383,0.7255579117856747,0.7103825553720161,0.7322569347431498,0.7216889942792539,0.7158978113350281,0.7595310678241254,0.7345665608085075,0.7391244746071577,0.7169435929088697,0.647595120450248,0.6683081062297082,0.6594657051862975,0.677322408230475,0.7100957445746543,0.7675613045537579,0.7983415309612707,0.7865540645271285,0.7369832691922835,0.7966475275371369,0.7793714547341769,0.7402909245712376,0.6945532655769706,0.7121622877382732,0.7251728288601641,0.7524722709258596,0.7141269087222631,0.6615310185820961,0.6410172063402958,0.6448575606098649,0.6389983703051688,0.6284490054488787,0.6287301389642579,0.6588304681278248,0.7206402293629746,0.7168631372669919,0.7060941945603268,0.702735131292808,0.7177072932031942,0.728892425373759,0.7146534416516854,0.6725153784089496,0.6692736268644587,0.7046016132564618,0.7432553452000198,0.7702007454570796,0.7692160904679237,0.7131310716279772,0.672517340035943,0.6623255323377689,0.7087537593087645,0.7364038191164117,0.6780140402628514,0.6668967441956778,0.6794858710508527,0.7238105065145518,0.7502938548143273,0.7143529463298837,0.6405916267054912,0.6084496380254396,0.5598571902037361,0.5519269915925478,0.5864107247325717,0.6176669244384669,0.6276867390157673,0.6318502499358654,0.6048646568856996,0.5812538139967399,0.58830081743562,0.6121283278401972,0.5990156917770496,0.5922857623103556,0.6245156617984456,0.6492889795012112,0.6523311658200422,0.5871043020070754,0.5591162479944913,0.547282815185349,0.5047743306920367,0.46532901403144283,0.5245715789678053,0.5228191325985561,0.5603759443281777,0.6083507160573808,0.6318336225517693,0.6638579585400831,0.6537954229685095,0.5932224224990297,0.5658935111460492,0.5675954299909325,0.5352864936175229,0.5937705455197994,0.6352395514124485,0.6652416047723244,0.6488415326752583,0.6377769103823759,0.6422156297482268,0.6098622186960362,0.5961493307356526,0.5808583623527737,0.5551698084046316,0.5887932497160643,0.6085104098128581,0.5534818809802251,0.4943218252189001,0.5301204924352718,0.5352470551155848,0.49393627694498565,0.48371467447193706,0.39498728297703245,0.30241793894363717,0.2497026451007192,0.10587678560105906,0.14702805309180073,0.09559872030935501,0.20912210535832457
0.4783187809136301,0.4956921637211086,0.4095599746861829,0.4092570967119607,0.3651441161774851,0.36817348315229326,0.33567257159615177,0.3134823429373442,0.3652269790347363,0.46500545107471525,0.5375740026488044,0.5390576043214474,0.5050333567172974,0.5587868270941486,0.6336555982477359,0.6496784359754474,0.5980729991186783,0.6337139239452126,0.6459407897178508,0.6851488122955715,0.6962348117781417,0.689245269875855,0.6781171807575812,0.6936585733831523,0.7035159617998106,0.7082437195358467,0.6837888680473656,0.7039845080803229,0.7054094886898793,0.6799228043039919,0.7055784705656845,0.695469505817124,0.7184267666773593,0.6939078032006334,0.6133520296208582,0.6227644333218957,0.6215042430379941,0.6520381414713325,0.6574426154609202,0.7159866820313259,0.7792191984719803,0.7754697140220707,0.706984406705089,0.7716930290655319,0.7548727001757477,0.7025400803064609,0.6536751362295066,0.6614558560100284,0.6932160997867014,0.7278202363668662,0.6925879939708524,0.6461853567221388,0.6165769465588565,0.6133898750853881,0.5955390027030132,0.600812555202157,0.6089369623747632,0.6199743544040174,0.7068365854518478,0.7134342482199678,0.6859626200354701,0.6840661050330585,0.6995305313690479,0.7257641048494875,0.7195938845867087,0.6653286832951321,0.6719574545404153,0.7089819241900159,0.7345573596312729,0.7441891636560911,0.753759367632587,0.7197726466528181,0.6722840500929319,0.6562245334880317,0.6921978089736944,0.733974801828889,0.6760766716503418,0.6631276880426898,0.672455043071065,0.7164711454173969,0.7470857115783104,0.7020837136529987,0.6452355375418443,0.6039945095753743,0.5672820447158589,0.5712093817583511,0.5940383511961628,0.6345932008100589,0.652149599468136,0.652808468428649,0.6260183174170652,0.6101417145797762,0.6117532931973712,0.6409067303676501,0.6187386212694758,0.60437855181905,0.6496518332086992,0.6655766139812843,0.6601448459113287,0.6052170520954976,0.5656007503807093,0.5439853092613577,0.5293156440783329,0.4947800928378043,0.5471042480307378,0.5405330421297145,0.58009155440173,0.6432670335420697,0.6841510162269864,0.7193573388386718,0.6990969485702323,0.6430290356325031,0.6168258523403127,0.6071564181530641,0.5880593787391225,0.6381886955100787,0.6771836759749239,0.7075297399338482,0.688217570719321,0.6852415045155389,0.6726188317722086,0.6339299204337134,0.6142122805278412,0.6105232720064624,0.6147725482832311,0.6426180035611215,0.656124491567303,0.6057023954039242,0.5384081116146264,0.5503800512121814,0.5580005055705801,0.5383382827524912,0.5355399371298065,0.4620253339736812,0.37513412459707635,0.32264547201949706,0.19058860506320824,0.22855907072930998,0.09674666382584196,0.18749290998515677
0.49455956960828595,0.5155761515437732,0.4543655542994801,0.459101847661687,0.42555786286757075,0.4286150659645755,0.3649445490532695,0.33651795875316765,0.3397222563465981,0.4233606505885523,0.5055061431628769,0.5400022751687055,0.5199488683697364,0.541347159132873,0.6161777744181244,0.6647183600550933,0.6248252649689698,0.6687645435053787,0.6916680110536761,0.7293966011093587,0.7181935566812526,0.6905091671292363,0.6943707337218389,0.7322480048243846,0.7340509106557762,0.7262835587291273,0.7152561251520136,0.7326575131056897,0.7263936729844046,0.706241625016071,0.7154926161975733,0.7023019041324999,0.7273388071070926,0.706067748001192,0.6491301689479022,0.6627055329273693,0.6421089802419908,0.656633007521053,0.6847143741042331,0.7587172529660514,0.804035204244142,0.7943619221031795,0.7429597204812377,0.79091152413186,0.7579948872684189,0.7233823939524492,0.6872730427600726,0.721756945837317,0.7309862084699683,0.7238642197033277,0.6760091787252203,0.6494411378662354,0.650566080030111,0.6429409816541288,0.6210473788717075,0.6032848834654614,0.612468994231839,0.6609791972581034,0.724060336669393,0.7164668444924385,0.7051361405921486,0.6976296491502402,0.7213661098398748,0.7464645426789809,0.7316166064101758,0.7039739143252167,0.7083206356048117,0.7290564101722131,0.7597386915735723,0.7660475904747202,0.7811940675914373,0.7384503374755607,0.6802181791810992,0.7025923398853092,0.7509607690698965,0.7599243842494511,0.7086755417398064,0.6848633376564366,0.6963289251233717,0.7258908312553934,0.7567770771941864,0.746302354194612,0.6550396933957896,0.614793824400597,0.5828278840811959,0.573035470112608,0.5936145056069949,0.6218015270729977,0.6488148340703819,0.6595756490945285,0.6265746957400528,0.6154926995223686,0.6327335217253641,0.6534523408365145,0.6142553431103434,0.5914466492525188,0.6358826178636118,0.6583438883996516,0.6468315895433169,0.5841394204497439,0.5638130780571247,0.5396978678277269,0.5102481151165066,0.4886293886190868,0.5297148542661914,0.5214109027246362,0.5512075624760312,0.6089669981060364,0.6610130260769692,0.6962142572006093,0.6814562698767436,0.6258224465649804,0.5838988888803942,0.5689959253021348,0.5474992268033003,0.590154243257843,0.6278163654174259,0.6484606947266052,0.6378344426698145,0.6735404596757502,0.6791797112789792,0.6318177281912355,0.6008038508993738,0.5571227591029463,0.5207344558639344,0.55673828803401,0.5881565101383629,0.5792521200650279,0.5405286704004404,0.5198481414614167,0.4863113897672905,0.43210710894108706,0.3937153820837149,0.29078561072774567,0.22683675790861024,0.16456550797414593,0.08492504028129222,0.20131283860322907,0.21369826676702702,0.33056918720677503
0.46819243156299495,0.5002532435285058,0.4507883184520086,0.4573074336535354,0.4151429050479582,0.44755340659548265,0.3787135663024115,0.38041801615939413,0.4238931930007709,0.48714007044707713,0.5499771796729962,0.5596403901108811,0.5176017328864765,0.5427363089979805,0.6132364203221334,0.6505961530409395,0.631918863697376,0.6837177859825293,0.6949407594175968,0.7331998760322406,0.7265259493614799,0.7127734061152785,0.7154574821438912,0.7315924621206029,0.7366867441422469,0.7303642100684605,0.7167680444694716,0.7424351481234831,0.7206064804806885,0.6961496168444559,0.7354620750780624,0.7243723296139849,0.7338742982006798,0.7208029026344426,0.6732123610606768,0.6879744041650996,0.6875117499882524,0.7017202225713304,0.7125279833277597,0.7669343101089029,0.8071105932024071,0.7986306139419261,0.7444418672966467,0.8025635727156346,0.7736242840830465,0.7387084991207713,0.6980132320889336,0.7171050545873138,0.7278590921938727,0.7408418443482155,0.7219779245711522,0.6753227329291532,0.6412874419544836,0.6561488163379285,0.6507682880841216,0.6235805194364157,0.616980671867938,0.6548913386272361,0.7376933833290288,0.7277883905724346,0.6992721122093488,0.7018941402128063,0.7271359345176597,0.7430564334402039,0.7327122152898915,0.6957992001471389,0.6924760142945396,0.7143589143324347,0.7341671725947058,0.7523170150248732,0.7669525294819269,0.7273203772362444,0.6837295721905081,0.6889378010892462,0.7447500130709148,0.7784765563661451,0.7268652294184739,0.698551416669255,0.7177938034891195,0.7669579387765728,0.7780849535721506,0.7466434239524787,0.673612865397418,0.6374604109392221,0.5974764215325377,0.5941669415454855,0.6202567274155376,0.6428981671885202,0.6622401167707913,0.6672242882574664,0.6326504695408042,0.6291495777466194,0.6510227071799302,0.6655304477991246,0.6292544422593337,0.6137418830533184,0.6533122547682763,0.6784463240865823,0.6736771156985826,0.5964244607969267,0.5715979386430716,0.5522208419169842,0.5064535438497004,0.4867594656331704,0.5538443376932805,0.5378347023645247,0.5597900207864693,0.6231926180611709,0.6485149176340353,0.6676325594649902,0.6614330190949579,0.5949955081205001,0.55629730173371,0.5526236286753614,0.5208065334373311,0.5841719012900489,0.635171114325271,0.6668943220852007,0.6628256300476839,0.6557263551619392,0.6362590072693164,0.5795580224460384,0.5110006862432612,0.47208256530840453,0.4744934076467071,0.5184130120500098,0.551333656345537,0.5053384565119553,0.4222166839293293,0.3904318416921986,0.31375587321541437,0.2519288685243396,0.21760010598661828,0.13078555483346838,0.0932433998899741,0.13400041361013587,0.23000496055679487,0.37835940582283667,0.3882039118389626,0.41540885690508533
0.5390088455600588,0.5802971104391168,0.5151534259434701,0.48269767109627215,0.43597765440368996,0.43341416917160996,0.3211279229483646,0.2797916069110969,0.28502517162630436,0.3269754263224445,0.37028985404639136,0.42111178800457916,0.4559603770003784,0.5038931011388698,0.555786015074191,0.5849407225836898,0.5696659603046246,0.6530692943639507,0.700860546935721,0.7389212830300549,0.7418536335177369,0.7224979848367862,0.7137237817175667,0.7469719370845593,0.7511446940862861,0.7425147634941717,0.7329374207143005,0.7491218073414014,0.7481302762793387,0.7457652588517641,0.757502717741911,0.7297471614056609,0.750257019443016,0.7332597542302017,0.6619080860226644,0.6776551928577851,0.6843821462512718,0.7020598521358357,0.737175178497121,0.7922907075180815,0.8128787224806309,0.8026984852917519,0.7611182848863979,0.820392323238824,0.791052609985654,0.7667254502672356,0.7152114479497841,0.732228850762079,0.7724283450810218,0.7761177961728096,0.7253933866641779,0.6941275087600238,0.6587802242946421,0.6420872273306293,0.649873873086651,0.6554562183013874,0.6494878064555298,0.6719702743340817,0.7419837571029236,0.7312665261159166,0.7015114875626081,0.6977143107798917,0.7288186216038258,0.7499724029821088,0.7338459209411334,0.6943071274842884,0.6960232418326997,0.7365477353139309,0.7740716365408332,0.7743941836794785,0.7622678340900559,0.7234293721173168,0.6809408583019002,0.6745455971911498,0.7177151017940114,0.7474495927173941,0.7061980455948509,0.6869564274634348,0.695592993569308,0.7359696314382319,0.7666275368841791,0.7566723282103278,0.6755770902491699,0.6211157468366261,0.575266902856457,0.5661314123402985,0.5983632716915952,0.6426949878299861,0.6614536493918588,0.6599790956185652,0.634113374322475,0.6276299614561349,0.6386039800321358,0.647421942967515,0.6160637937618033,0.6107606050916723,0.6476103445908555,0.6683115121922987,0.6689731301502237,0.5957093505467543,0.5674109440345302,0.544151966337133,0.5065397843488996,0.48304810622708183,0.5348309594276013,0.5324659595198792,0.5701152074134985,0.631270747354891,0.6495912964158536,0.6629093104039875,0.6643901497977356,0.6070616097957908,0.5584524519329577,0.5508862612178279,0.5193876322835825,0.5613117510182157,0.6020891040010644,0.636176416661604,0.6442525146931092,0.6643774295347691,0.6506120852513642,0.5980516363538037,0.5608393127762721,0.516533831475895,0.48622923115527306,0.5327822935704902,0.5655682277608481,0.519007850895467,0.45777964776984054,0.4458958790015605,0.38715290894777754,0.3469236380228122,0.33164820996143346,0.2364611161786201,0.2024254379892586,0.18543683262160182,0.18345942713358038,0.30247391570222065,0.26422468284733697,0.349962324917206
0.5491388637136653,0.6050165151336659,0.5417071212703433,0.54336074389571,0.49876233904027834,0.521808504640958,0.4136291729542848,0.34767357452909264,0.3376222548001412,0.37119906080716425,0.40493466685269786,0.4205822181868435,0.43515356870565713,0.5051920286248914,0.5547233546712292,0.5604725998638944,0.5564255242432283,0.6422901147567274,0.6849970174868324,0.7297709500123706,0.7332669973868908,0.7188454943447437,0.7090675387465804,0.7365872881958593,0.7361547430869853,0.7104963429870281,0.7118365607408897,0.7465801891908233,0.7228912786905926,0.7160267946127071,0.7517122161446165,0.7306323442797041,0.7440514692468638,0.7207071028580804,0.6592098343650855,0.683023735193708,0.6924773223548502,0.7172775325190811,0.7307411574995041,0.7785413340989237,0.8176439541504318,0.8079874454146577,0.7567898445173062,0.8219297889781984,0.7922157994962262,0.7665854490931758,0.729134766412492,0.7385195925577275,0.7584408145071566,0.7837767798755958,0.7524741451002063,0.7004434447133784,0.6685398623128718,0.6670250150394005,0.6517573132728345,0.6467016178579044,0.6646257719234484,0.6907514098096164,0.7508612152465725,0.749060745980691,0.7246824404750811,0.7073756158996957,0.7292338546593854,0.7529802202249847,0.742604154800442,0.707376203870668,0.7053028105732596,0.7426534744172283,0.7733176443468782,0.7692791898878313,0.7747226399493928,0.7416147778771873,0.6919382163043806,0.6906791717127813,0.7182112992943979,0.7302419508806794,0.7010956974167322,0.6843493920413144,0.6938915545605266,0.7493031020919863,0.7780914559939625,0.7443903245046583,0.6643464836981472,0.6319428170658805,0.5955545207797055,0.5906944643058483,0.61481483899338,0.6374081162387164,0.6572276611335561,0.6670277409030733,0.6366805213841662,0.621353354703057,0.6257297131314048,0.6477948003840822,0.6284361396166666,0.6134115344844082,0.644615932334551,0.6689941027272817,0.6687059430335719,0.5961389574704463,0.5653083967313446,0.5362203884840557,0.49975789028784395,0.48339409807420763,0.538639039003926,0.5352809471666443,0.5682302126109136,0.6168867141622633,0.6398373109336546,0.6658185472709288,0.6578071340336427,0.6056966600050143,0.5719199752834688,0.5411264069255268,0.48581841163919914,0.5422370057247373,0.6069865461673175,0.6583130395879573,0.6526548037311649,0.6485138762465517,0.6306323336500375,0.5637975711584187,0.4923598089057217,0.453912630517751,0.4674462706072513,0.5248943509863094,0.5546662201012265,0.5062074396498207,0.416620782253298,0.3794773238820987,0.3097650880207545,0.2377584284081672,0.18475920254513584,0.10217831284843903,0.08213434703543399,0.12803489583792216,0.2235007090900431,0.3903718932563887,0.40461061587489355,0.4046931763192393
0.48584246895340677,0.5224315412771247,0.4682475278440826,0.4763169678986743,0.4365516109818475,0.46169981509145785,0.3745368212163387,0.35292133790274277,0.369809321868238,0.4209096078376292,0.4917567249083342,0.5272618555356922,0.5005720825457587,0.5102773644152194,0.5701280789993806,0.6087660023822773,0.5909032946745881,0.6599064801898831,0.6879294993770518,0.7294852181816057,0.7364047333245302,0.7117464525512381,0.6901776738882218,0.7116511892115684,0.7155482069217106,0.7094993248562642,0.7092908272500882,0.7380026795187574,0.7238094949971663,0.7104062887760312,0.7417042928363119,0.7242681045989071,0.7332177109820727,0.7092350063174989,0.6444220441531555,0.659728011319122,0.6658716784286423,0.6939818306784176,0.7173112953188953,0.7713845097540807,0.8102949730250011,0.8061716547147036,0.7542214404783534,0.8027006213460666,0.7703932842165909,0.7569912725153949,0.7229714749148864,0.738669713913984,0.7688259924877832,0.7766038782920581,0.7248111069798451,0.6815485468094806,0.6609275120443573,0.6623103362517958,0.6544712437331253,0.6498590716143187,0.6543226492274877,0.6691427689948874,0.7292131415255039,0.7306127496693876,0.717765667459502,0.7174918491630857,0.7400267008472337,0.7579728478024105,0.7438640317650996,0.6957922285014082,0.6898172214462122,0.7312925470069245,0.7617087414452367,0.7700083740572933,0.7882806306335253,0.7568116493776648,0.696249122931639,0.6824707296324783,0.7236458617483655,0.7476601227082041,0.7212374724912685,0.7139803276732419,0.7186858013478525,0.7576611633247977,0.7769226551536399,0.754957996073107,0.6931060717809823,0.6594200408901079,0.6133997691615963,0.603206694100195,0.624283941074171,0.6536249834157097,0.6738345620347598,0.672716662398011,0.6487524106509873,0.6521102186555932,0.6596217282772855,0.6642565009648488,0.6301048808567838,0.6223280209140989,0.6707297971332589,0.6968399920632585,0.6917858273216291,0.615108286382815,0.5898503333205343,0.5748706593005735,0.5276751938929566,0.49196493608238634,0.5531080847900243,0.547214508136721,0.57540825093807,0.6299492006595229,0.6483389799017547,0.6734837420047858,0.6710429169231782,0.5998832151141337,0.5533698013098501,0.560556381133894,0.5549699175154432,0.6099885857888931,0.6346670804628926,0.6376463338557382,0.6100048864738047,0.6092192400213284,0.5928458721310798,0.523760268583695,0.48107422457471216,0.4630313219632419,0.4485427730231326,0.4764639407049063,0.4952492850013425,0.4168057254826838,0.3010328788524613,0.26113510139447244,0.18649531401512365,0.12505622228138735,0.10523480939980967,0.10668860481219633,0.20234748790970541,0.3119207267571581,0.40410265245375776,0.49463954593282317,0.458128416533212,0.4394823937164721
0.43493253100405693,0.46825368908877246,0.41344702480138673,0.39778831716682367,0.383893656940662,0.43606622747161977,0.38615899323534614,0.3801735405582505,0.4370340799128979,0.5336227976142698,0.5800895001370372,0.5541014215419934,0.5098251726575742,0.552271943292549,0.630582546682793,0.6622948402814175,0.6152744266715753,0.647374980001355,0.6669843394302584,0.7162741673764805,0.7281865262944073,0.719451894986663,0.7083370027859125,0.7250888658146718,0.722784738327048,0.7167774515093539,0.7110834797439206,0.7279840428796843,0.7287411956965967,0.7218216460998796,0.7379972170727082,0.7161742557358713,0.7267999247496786,0.7107733949430572,0.6398659808794318,0.6508384920618351,0.660453229244884,0.6812938519991941,0.7214866342753292,0.7752769630771226,0.7998778753945597,0.7943619852016945,0.7468459688102871,0.813549016620928,0.7847257880237759,0.7341818479953807,0.6798313568407414,0.6972719662096935,0.7274922589575344,0.7496663196021479,0.7170864039926323,0.6743154613227548,0.6407327717501959,0.6319561206263031,0.6249634721063457,0.6165767968839312,0.6183199389369516,0.6504044903906292,0.7230698275591482,0.7224161772255411,0.7032709156085974,0.704076656344154,0.7320656383223555,0.7484064603111735,0.7337046740601869,0.6826421413508195,0.684861815244033,0.7184478716714247,0.7360302580328649,0.7777437724912104,0.7827196191724172,0.7217024904000264,0.6913501084037812,0.6884792185939523,0.7342943155159716,0.7511964918693641,0.6829451594610721,0.6648166283663812,0.6792580426768707,0.7122576555542807,0.7380947359805945,0.7249388379875352,0.6441918120989193,0.6094939225987924,0.5736452345140802,0.5518813674792629,0.5849551275078276,0.6285209673717012,0.646807801015541,0.648943468213137,0.6075565842902699,0.5930021570211216,0.608348861978812,0.6228965104366825,0.592933945609615,0.5828336665576519,0.6290301088339346,0.6575230445030407,0.6595667903512017,0.5909208899184967,0.5540073544188345,0.5301039420965048,0.49694302923567263,0.4658885299609925,0.5223124829709449,0.527871285737966,0.5628957384424695,0.6156896674387003,0.6431126605961425,0.6752521190644387,0.6753205084156081,0.6170811004290302,0.5808280127881965,0.5730169720294298,0.544872545501092,0.5922160762446854,0.6174513739248989,0.6405983391920835,0.6491636190305272,0.6824166334932231,0.6954810814475195,0.6570177777497165,0.6104449075722621,0.5677587825969824,0.5346328442158534,0.5641414900326258,0.6098347616918223,0.610794326356917,0.5589106482812906,0.5409873238456537,0.5004728811412497,0.41655186194118604,0.3840483259045339,0.2938270655783908,0.2041736554994435,0.13865401173270214,0.08115209638288345,0.21170617451330082,0.24650230244576782,0.33871394133684296
0.5015616515064848,0.5492033784321508,0.4334567483293654,0.4596962406758735,0.4209763502453732,0.46919051829326813,0.4189405948923078,0.4186855525908127,0.4832072160110065,0.5483125505092009,0.5558027925955316,0.5387791578640115,0.5240238809956271,0.5319902535925,0.5711451167438567,0.5729125747352212,0.5234695986483916,0.583059685294938,0.5929176509019883,0.6441669456232593,0.6537600125347788,0.6375428690048542,0.6198552932486067,0.644334942303721,0.6540964941580151,0.635403734314091,0.6266905909745134,0.6485251635240241,0.6313407018580277,0.6141327295438178,0.6569765992904731,0.6471706916812723,0.6583161012441118,0.6211007324671367,0.5364565377434648,0.5540255856082845,0.551011453181775,0.5594138101035983,0.5939879079673409,0.6780638846106207,0.727215265467367,0.7194342968886722,0.6674411172018663,0.7221071871204541,0.692234604722861,0.6441044788241322,0.5974740791026021,0.6195977560812413,0.6350513782091292,0.6677537613276208,0.6307509701557755,0.5992606833506573,0.5712025286654899,0.5716075205881292,0.5622240674327981,0.5561243350032675,0.5608555314650224,0.5832181070824567,0.6610974756283328,0.6604841688783031,0.6326253662841105,0.6235383159968346,0.6485405256468191,0.6780481385373011,0.6559923631329991,0.5825658345410127,0.5743525349746621,0.5994239749843683,0.6216465644689131,0.6361160535657727,0.61804074015053,0.5794035496536719,0.5275444728296409,0.4996464670835774,0.5141814822644735,0.5592261732381907,0.5346170729717645,0.5258366062128104,0.5529542918409155,0.5754148212082738,0.6091115793499233,0.5748067219591693,0.5060125398054895,0.4909025591666833,0.45305068578836144,0.4422585868432375,0.4983078440228407,0.521262982244812,0.541518723149946,0.5486672530219253,0.5194223134152005,0.5106874803702321,0.5149723536538461,0.5493279613088491,0.5338574606666193,0.5209648845590256,0.5644872142465912,0.5821610682779307,0.571511812161796,0.5125327060451499,0.4862841535587085,0.4613571551517271,0.4242689305994095,0.38064585812320323,0.44765717940601785,0.45257204502736864,0.4981777631428299,0.5617875866211258,0.6118901882955933,0.654869687294168,0.6723591350011187,0.6336311259729765,0.6092930577398135,0.6350215042790206,0.6433631825209584,0.7272791422196924,0.8016229896963595,0.8542337343740497,0.8558809230700591,0.8802421332787495,0.9161259372719004,0.9684502684180814,0.9748660883525484,0.9782263671390636,0.9783239663410523,0.9486882192106199,0.9038217520867464,0.8582098649057184,0.7881613313819833,0.7303903854274886,0.6829923193464108,0.6484588244388232,0.6643412164703151,0.6427301686029376,0.5543067645590972,0.4250185311282776,0.303240916754009,0.31174611917432093,0.28308419843626575,0.25061145681186103
0.47532721451781673,0.5117265150023518,0.4206262108054604,0.4577006299125782,0.403355617306509,0.44533395977976054,0.4092115757276553,0.444705615222417,0.5279968466180638,0.5538880677455171,0.5490622870781989,0.5550886761787798,0.5351769727094393,0.5344621780965293,0.5593871961562288,0.5552707313706431,0.5058144766782567,0.555150201615881,0.5854158781578378,0.6311634864320272,0.6443975167135098,0.6294762452355234,0.610037828097252,0.6259191612399109,0.6212317003901461,0.6231536735446487,0.609721012704964,0.6253954006978933,0.6275256659825826,0.609817639466046,0.6532566043570784,0.6358641765187638,0.6378567476579722,0.6160578331750615,0.5299918445709682,0.5424851757054282,0.5384145547375396,0.5410721202617849,0.5815938309864309,0.6656391835950969,0.7176415341255615,0.7077768462333673,0.6473129720655777,0.7013707629226591,0.6718948690338791,0.6310991855607508,0.5895775386828186,0.6117764288199706,0.6382741680218202,0.6540418924700808,0.630437945049607,0.5834548315172041,0.5592656410032073,0.558340169397501,0.5583675378380739,0.5554852275675066,0.5462646385236833,0.5771081693799343,0.6521865945130756,0.6555052875573573,0.6326577807069032,0.623836740265936,0.6378900966928742,0.6579666564450761,0.6422992108283325,0.5591311210231742,0.5541693486407295,0.5892864983078072,0.6226249917610975,0.6192239388445984,0.6045121177302987,0.5647688218656808,0.5233260795554064,0.48935218912923983,0.5054709365367304,0.5601764367512809,0.5331975879961389,0.5354663677156684,0.5472007800034752,0.5811762759644559,0.6001730045723737,0.5945123180164203,0.5327887370243282,0.4913104019628276,0.47163187333181733,0.4682335090745988,0.4991004966360842,0.5397513636390177,0.559471773474856,0.560389200216849,0.532961704733056,0.5219863368000641,0.5405483965644332,0.573517650180292,0.5491374119067735,0.5332981001844279,0.5743107759826795,0.597307207384779,0.5898770865800989,0.518041906510883,0.4858177816152238,0.45252991122719577,0.3982835489492019,0.37082268623854703,0.4309194679757779,0.41025307958950624,0.46515329798156174,0.5207663535459083,0.5632936815312953,0.6028806215108273,0.620688470913907,0.5818897069491114,0.5797083629210658,0.610185779962863,0.6152288463831985,0.6714087930189899,0.7630437750739366,0.8396888360371926,0.870900565620626,0.9095168610072957,0.9407205093787602,0.9823380476146859,0.9852150302531479,0.9733678692633367,0.9531909414999746,0.9512086385740977,0.9559308389067357,0.9365676885363106,0.8527806129798221,0.8018544750361425,0.7627515555504248,0.6664036372188701,0.6168263877538507,0.5886829741624404,0.5855828921505923,0.5705595267959244,0.46775900083268585,0.37901405443399944,0.3240369089886296,0.23800007855151017
0.5383317492044593,0.5845595278771665,0.5301999875222253,0.5290701705660534,0.48404058031926134,0.5021156174675393,0.3970483396515861,0.3605160572362988,0.370593514507416,0.39254329462356563,0.4283239707974894,0.4747207446239028,0.4938147493531276,0.5257573346173983,0.5678791317590489,0.5948693781207146,0.5863862796085338,0.6520746763459314,0.6784055952556616,0.7317860476254895,0.7413093567560566,0.716375185024438,0.7092937558480372,0.7369240851420144,0.7339642782150315,0.7290270149648884,0.7269672117769451,0.7383690157914388,0.723318773401364,0.7283587183694256,0.7601942541192276,0.7383944041841471,0.7556841197607969,0.7332073875962546,0.6683885846056026,0.6885936324490428,0.6872736550926525,0.705012490290678,0.7387909718898575,0.7935815151877332,0.8266949802355611,0.8132336831104867,0.7503897400606749,0.8110570933074451,0.7957946494127569,0.7733528573386154,0.7319913121312414,0.7541788191601195,0.7757290023744808,0.7857233674718761,0.7489425487762461,0.7017245777909642,0.6729605330858524,0.6799517162692122,0.6727241350608772,0.6542337895204146,0.6572834055489395,0.6848138311511851,0.747283531304399,0.7459057571498685,0.7284752803081922,0.7182876586398023,0.7338226384245667,0.7557014159203381,0.7524813749903092,0.7090963962471514,0.7008147159963797,0.7474745250528763,0.7795952772784197,0.782311753670386,0.7835991844759,0.7325082110273958,0.6826312892615681,0.6907241085500869,0.7372004402056793,0.7574814796461666,0.7144866859314829,0.6938344687632445,0.7079535055570728,0.757099032065373,0.7812022480489444,0.7625632671059128,0.6798666221648793,0.6265764655379469,0.5937359456185559,0.5956333292126496,0.6101330046566313,0.6339301688738844,0.6563483354235812,0.6626664287622073,0.6345679013736711,0.6189359454027025,0.6260606376158842,0.6505114080071497,0.6275269017672963,0.6151735702466821,0.6428105526899367,0.6631719050969569,0.6729957482188155,0.5964638897661781,0.5697409233842332,0.5576821769458217,0.50299895789075,0.4700871966996,0.5298967578424184,0.5140093192795447,0.5470765574660396,0.6089148891853587,0.626654639426648,0.6502984254773886,0.6464128897485031,0.5728618884154032,0.5194828632500349,0.5206777687992684,0.5066858444273502,0.5722511080511795,0.6238730611697534,0.6389853808793927,0.6074267656178016,0.6045758438700092,0.5857462256008352,0.5178981452229436,0.4856460703923342,0.47605427382543974,0.4720280726770005,0.5040281408660565,0.5171250809034164,0.43648817728427536,0.3158563919854597,0.25975101367812253,0.16552884584301875,0.10516345153502055,0.09011854891961713,0.07027383251365804,0.15250775084690893,0.27628688713545646,0.3841094444841614,0.4867443600534085,0.4435255974027411,0.43233291760317116
0.5199458983659155,0.546696572133895,0.4945372009507644,0.5270968782822002,0.47935564236622363,0.49363061199930885,0.408939404840062,0.3814681771206844,0.38019304994482267,0.411805276000706,0.45804104188063466,0.4855292982521851,0.4939758508025526,0.5204068342187921,0.5586113307177203,0.6038768660582516,0.6011911077530567,0.6660330873591316,0.6937346174664649,0.7385794685422908,0.7480364238271161,0.727651180605671,0.709748477247635,0.7332507336225021,0.73571454170056,0.7257140772651485,0.7321623453859595,0.7616709656189962,0.7352175124756852,0.7185559911446425,0.7511970074014883,0.7333251692259479,0.7426655125040003,0.7187799966943382,0.6671621778879053,0.6886406056621645,0.674945831619144,0.6990127377702616,0.7422492837099968,0.7937981904767026,0.8295857757622596,0.8220576507785552,0.7637954285128508,0.8277615005781586,0.8022111149260546,0.7726851327626011,0.7352422424157239,0.7478339492057099,0.7632815361915312,0.7822620393847063,0.741544723576795,0.6789180982171616,0.6447615540909417,0.6608025759674108,0.669994950994562,0.6598569575096519,0.662161869767081,0.6922293501538832,0.7439833264069062,0.7287585912437927,0.7177695113070774,0.7181113967650169,0.7383595769841669,0.7634642913385958,0.7559148005366408,0.718227080789915,0.7105962587796226,0.7280973309146391,0.752473757682179,0.7689348076342845,0.7801927185815836,0.7404723635868213,0.6848004159961063,0.6813585403840535,0.7334140206588651,0.7477564302642767,0.6993226885517345,0.6985633977080253,0.7243372510254185,0.7653044868328334,0.7932544924540789,0.7752391147085829,0.6840982734627794,0.6430444165285532,0.6039341581625579,0.5801660178443341,0.6062183776988564,0.6494100491049221,0.6666621236930719,0.6635629683398825,0.6330880429758021,0.6315552023147739,0.6531719566572073,0.6643445619520957,0.6247144746116493,0.6098879088334712,0.646015429845415,0.6671066407838635,0.6701543751386198,0.6010429185251097,0.5741763634851509,0.5549584077857852,0.5109880670296241,0.4800441639621914,0.5433594396429204,0.544634593331296,0.5667746754353958,0.6085475673559393,0.6348965657483153,0.663330896940798,0.65089640774011,0.5832267191371187,0.5390744054833282,0.5328960415897392,0.5184431592120208,0.584999258888417,0.6218079248144153,0.6285996031929046,0.6057850401559698,0.6057636955002043,0.5766033598897228,0.49898523787327087,0.4706900792535514,0.46076109428057865,0.4511524979133461,0.483067023712859,0.4988908927973732,0.4227992115260726,0.3086061886519613,0.26227968728256634,0.19209662215309514,0.13462264468886875,0.1059750023491497,0.08990755731474431,0.15561015601414463,0.2577687083793909,0.3621803598881127,0.45934291980222297,0.43401799344242964,0.4371598612157847
0.4339644748893436,0.464741410997104,0.3776365169803344,0.3507487691516924,0.3449840213264653,0.38304478911957707,0.36870081402430344,0.3775726249594333,0.4640073632197996,0.561452083008096,0.5673750133489034,0.5487158246310566,0.5492870549159141,0.59533027489146,0.6494835245877459,0.6357741067124458,0.5842954741965048,0.63602497164933,0.6470081063040485,0.6880058619244014,0.7133401229004136,0.7028138686254581,0.6707439367973335,0.6883139996490134,0.7030283299393895,0.7005571555655121,0.6893555715861814,0.6982923407576218,0.6895136091634612,0.6889280601128096,0.7096418964465376,0.6955021117148887,0.7161349581088047,0.6954069672309454,0.6240277118214343,0.6254487658942095,0.6264587223224364,0.6523952739609742,0.6664984755440966,0.740538416145903,0.793670018003964,0.7791058211629707,0.7208438542694656,0.7783867709485126,0.7519527758158895,0.7298526619152271,0.6887632215655316,0.7008614305115715,0.7342064451459535,0.7402392066134577,0.6934345536691557,0.6638337468708015,0.6428542451818532,0.6428011827110158,0.6420025339975703,0.6437499053991826,0.6471096583235166,0.6605914277710021,0.7370978573573618,0.7430234548180606,0.7165401894131834,0.7209936372268174,0.7359270716993673,0.7517317904641065,0.7493445748857258,0.6912858702862498,0.6922175369376428,0.741922067749095,0.7561603818259636,0.7706007198096818,0.7794522325380194,0.7237026215196946,0.6621792029766328,0.6450493586816892,0.6900628029042436,0.705661029258448,0.663667843321282,0.6493746521531244,0.648274041974724,0.7040943374934318,0.7367334835307262,0.7037658141461443,0.6443740275048988,0.6010227128188715,0.5605796332731446,0.5514437052079944,0.5815322839345645,0.6235939321896511,0.6273127024975708,0.6339468153635566,0.6193003099124046,0.6120459297853259,0.6315532925448544,0.6491781265276068,0.6183003566821753,0.6135090754168622,0.6521458384480737,0.6724326555076321,0.6713147715662866,0.6010784904809563,0.567141244552835,0.5545114775013145,0.5313809336157195,0.5032782489141006,0.5749266559004136,0.5719570766606311,0.592016333698137,0.6499238549955169,0.6740610830983711,0.7013857786503873,0.7037820371884588,0.6409958609152606,0.6111466626611735,0.605598492597499,0.5667031659868904,0.6110740572811559,0.6461506355600064,0.6648144626145227,0.6546616744947792,0.6814463119290226,0.702372304741085,0.6784339486965926,0.6254821607183219,0.5657239694410506,0.5252359077928803,0.5414316723276182,0.5727382486707182,0.5713924370046886,0.5362908800193344,0.5334785905516649,0.48768798598249297,0.40754885404390506,0.37120048395518956,0.28969603509644665,0.19282963254876434,0.12563307426867637,0.08219167568840335,0.2610195840567692,0.34811257854715494,0.4013364405642963
0.5055098007783556,0.5265002304432855,0.44506358108902133,0.46327968527116387,0.4312152149625292,0.44940990788441093,0.3671924021291035,0.35853137516732586,0.3755320463221172,0.400952587742141,0.4414023067892975,0.48686365206926496,0.5049502473953145,0.5204451362055392,0.5460540392046963,0.5735125650288988,0.5767969143634843,0.6638001399023733,0.6844896854528839,0.7118772466040697,0.7310552694873732,0.725419105415635,0.7014954831069345,0.7159772587436175,0.7256134236035356,0.719473227997019,0.70358768814958,0.7197842133609501,0.7139537760205382,0.7145361416494953,0.7407741277707577,0.7122022871316513,0.7236598702796843,0.7020331709087226,0.6349783114143275,0.6708494470448753,0.682173654325463,0.6814792051174711,0.7064661729400157,0.7776782277563281,0.8062784326811053,0.7867698409415788,0.7428683632215515,0.8170968359046262,0.7950194830086336,0.764427013125736,0.7071399723735767,0.7139278922408667,0.7526392397001236,0.7776456351140382,0.7351480339509677,0.6901564539127626,0.6618202070547586,0.6567764809950536,0.6547532699213077,0.6519395080221768,0.6492726916473752,0.6789708010324113,0.7564947922040153,0.752450916822205,0.7258719085166248,0.7139668814741427,0.742704438085524,0.7693140038306311,0.7447043148668118,0.6931366254926834,0.6928440419530402,0.724220814708354,0.7605810834969956,0.7777224360389595,0.7793964082868374,0.7487764284749742,0.7082894512179833,0.6989210386590885,0.7463443862125717,0.7794444532039022,0.7253650128731002,0.6984654913834116,0.7130445108454145,0.7545768498131505,0.7815828259864257,0.7581432726545678,0.6659831427955027,0.6343631867236904,0.6046863877821016,0.5894846699633041,0.6201894720310845,0.6508717598942161,0.6643159664597834,0.6773316273440219,0.6457559378594756,0.622641452280867,0.6293497471043649,0.6501616046165991,0.6289045136111066,0.6243697345467948,0.662833764915396,0.6780892934581799,0.6680589264339836,0.5940522237205463,0.5634110473605121,0.5382577792578965,0.510957639904333,0.49566503330490974,0.5436799621821361,0.5413210951751661,0.5740014937934099,0.6167730513780489,0.6405557114880198,0.6706573793650055,0.6651813999518558,0.6014100726188569,0.5523220038738755,0.5416406860893862,0.5219895045479268,0.5858361287923951,0.6456129550106117,0.6814831794249713,0.6551190330427509,0.6481856256681301,0.6344562826781808,0.5667085281346029,0.5149863495868742,0.5033092418040402,0.5000539044091395,0.5269321001772713,0.5513166863223109,0.4906715267603092,0.37520534689689844,0.3223407160751559,0.2552070580933754,0.2023841285785421,0.16267468617687475,0.1003501534620378,0.12125663473895226,0.21279729559773397,0.3215231013299553,0.4445611804843952,0.4395211211633101,0.43464123598578075
0.5535018980861255,0.5995567566542745,0.5417795139216371,0.5264074011106865,0.46461434624915887,0.4798193719255378,0.38400954688027766,0.3436114957460739,0.3448535739921401,0.36657175959427135,0.3757550589256736,0.39168154272616607,0.42877278782742845,0.49562259851166857,0.5464492057287825,0.5626063948948785,0.5522119285122484,0.640604172048474,0.6862797186773814,0.7262397997947877,0.7323846967220209,0.7221706650604689,0.7160154210810084,0.7307438976867209,0.7335421718033848,0.7451304100556373,0.7404248593352876,0.7407194475557815,0.724358718513299,0.7225849134901184,0.7509843615723589,0.729931502940135,0.7353040876392616,0.7130299895061613,0.6638891106689776,0.681126684569794,0.6718176112209151,0.698794380043606,0.7353175476862709,0.7815990160275639,0.8092969727175465,0.8007993856223786,0.7463345321218537,0.8067447657113571,0.7857477215833609,0.7467210164045003,0.6957224874446104,0.7265818307615831,0.7469105026307724,0.7491301088574495,0.7307929710998354,0.6993110715671155,0.6636208805170671,0.6648424145381363,0.6587258102291343,0.6469343455007704,0.6589684626729132,0.6834761772901357,0.7305985120239809,0.7282852478132942,0.7249393411789748,0.7289003024126579,0.7576552151239547,0.7709809533902013,0.7488513744311348,0.7133220182894322,0.708812212911451,0.7400019793096082,0.7765460985513619,0.7795165442768901,0.781850456232201,0.7487457481411794,0.6844911198389926,0.6610880244616387,0.7237945632950527,0.7684409180655343,0.7101503703678633,0.6869096362771341,0.7126184980918122,0.7692137409356414,0.7966193206336611,0.7604923795672265,0.6720066706381451,0.6419688356065864,0.6114751580427013,0.6043482021803364,0.6262389724526812,0.6491643372157495,0.6681982131011555,0.6758141636031356,0.6416629728515292,0.6294656614380456,0.6456964517621825,0.6666396084801529,0.6352647159095117,0.6145895260786691,0.6484170736144692,0.6786782722091416,0.6760094356707476,0.5906182856169199,0.5675457704390721,0.5606671819039155,0.5212762738045025,0.49459202415755443,0.551074412580766,0.5411243732060478,0.5662551629443571,0.6199362673491238,0.6504543386264992,0.6718018924117931,0.6527372345791861,0.5861296089123773,0.5480149072702849,0.5372871457654084,0.5083315390937387,0.5703995070195759,0.6086666538353276,0.6205786749058059,0.6080700146429212,0.6146671560903378,0.5970925788824747,0.5423041949938464,0.5188127891532378,0.5043219876065408,0.49641251525471,0.5193779196966626,0.5180236496688085,0.431092354434477,0.3140533495660076,0.2656070170221007,0.18417768986001737,0.12078466694094736,0.10175736632967303,0.09848877997626215,0.17873197337752156,0.28230800313344534,0.3879675203282443,0.4936161265186645,0.45491241469521393,0.44462769489111353
0.5523371707051614,0.6032541708266861,0.5376155223928708,0.5256623549181806,0.4831365943205128,0.4930279251483494,0.3924730059990511,0.36103609318995894,0.35982843711767537,0.38480906042594243,0.4040107399769287,0.4191867145374308,0.45394944508852414,0.5228284243743434,0.5671083899967551,0.56745776561731,0.5468825074223657,0.6386852092737302,0.7045133429588933,0.7442928378352088,0.7379277884493372,0.7353410796074302,0.7212534165334206,0.7191769177314165,0.7359182416786648,0.7425591688134199,0.7301617698001509,0.7549620007688733,0.7382810589421469,0.7187560128300512,0.7502647419181077,0.7350175456274125,0.7412843634761177,0.7121625753674508,0.6573232782410495,0.6880758374565611,0.6872222461968973,0.7002298642566663,0.7280877557158546,0.7806860927407888,0.8153043610658539,0.8133756579242728,0.7634491418317431,0.8233746663575778,0.7940257600326872,0.7511595424214279,0.7122531721627517,0.7497900680031407,0.7683295105018314,0.7720480341654745,0.7341794494612965,0.6896882325582158,0.6720135322222435,0.6762025679710707,0.6601613499015699,0.651485081013067,0.6608398889880917,0.6894601607387806,0.7598092285494489,0.7548048946485643,0.7245207082485373,0.7153215489996659,0.7431416192335119,0.7602501917924527,0.7412479679987783,0.7009302892620901,0.7055512359838284,0.7416439442082483,0.7682837965871901,0.7790561302851432,0.7849716369529008,0.7328466193500325,0.6699749705498146,0.6637140391987295,0.7139923802249561,0.7553420339417903,0.733400063463958,0.7072493686351129,0.7001474875373701,0.7547342280555134,0.7969248251556772,0.7701788545563807,0.6815449245218711,0.6382580757242802,0.5997771199846478,0.590464823386982,0.6128262899590875,0.6464310185146593,0.6707609173064955,0.672888338730594,0.6365034642615217,0.6230774987456569,0.6342109510816827,0.6502127329942549,0.6163535264392836,0.5998933762167546,0.6371197217081258,0.6635309064269731,0.6661969999751163,0.5862434565449179,0.5497894356148539,0.5351881848041578,0.5027306146518944,0.47080117908621844,0.5232562214814455,0.5211660197860941,0.5500351390805315,0.5987914937403181,0.624748773337173,0.658885924881165,0.656941355162465,0.5860492961837421,0.5311835539727461,0.5166795411625189,0.48822556592107486,0.5610006063909617,0.628436924384924,0.6556911677993911,0.6299839092706034,0.631541125581403,0.6160015281124143,0.5396778634278411,0.4852227639337354,0.4794669550822625,0.4920981979615709,0.5245113224852742,0.5390613318845273,0.46642988024173593,0.3506305188404175,0.3024903411163179,0.22139389874878646,0.1648536389234837,0.13989905772958616,0.08062921477784502,0.10282350066248236,0.1985331314595723,0.3160982584568579,0.45598124139129853,0.4444853168751782,0.44181720322535467
0.5044528554927935,0.525458041744085,0.44664600262987975,0.43842739064784947,0.39632949981808757,0.42219047654841263,0.3913656184058006,0.38005935601388646,0.42073126211210204,0.5007446240398875,0.5551461846109133,0.5606096310127723,0.5055743842223772,0.5312253861508455,0.6172559623808962,0.6405542085569875,0.6001441406373302,0.6480149366413387,0.650140580628169,0.6944488803425286,0.7091121380640768,0.6911735730101519,0.6811405112495102,0.7045018189983506,0.7094607653532168,0.70188373417577,0.6905132973565642,0.7119479326031345,0.7028085853910399,0.6973455985092945,0.7328022521464855,0.7119973624992857,0.7133288673521775,0.691709656883033,0.6448752923277572,0.6612025106832966,0.6449534675531542,0.6759146213029682,0.7082024702600309,0.7603928052110964,0.7952193739392567,0.7896205135417774,0.7524143989894241,0.8038814490129986,0.7521685466314472,0.7159964813303625,0.6835224959892979,0.7111653845813456,0.7466270258002435,0.7637316083917862,0.726525634517138,0.6799489627752765,0.6504610813740409,0.6564597145399104,0.6502283093394923,0.6357417198530427,0.6372596875694005,0.6632400063634118,0.7335837587840791,0.7298778564575259,0.7033035513687045,0.7023392772555527,0.7284896334242129,0.7445012249712186,0.7293239615108906,0.6769311433589305,0.6742682197439455,0.7209831641068382,0.7458527885924547,0.7542302881671592,0.7625711296487546,0.7091550171661786,0.6547212262945084,0.643591509806273,0.678612542281568,0.7195700273595405,0.6824180071453554,0.6545402535745377,0.6678483110536405,0.7222194837057805,0.7396262091186439,0.7014937652767317,0.6342593798969971,0.6110993088516292,0.5693020034119212,0.5541901909452412,0.5911502958389913,0.6245910478359415,0.6380301815423204,0.6458375408018179,0.6114318301627742,0.6041448573140377,0.6134226377892066,0.6278526943069102,0.616974010619697,0.600995643879677,0.6275010355016382,0.6538106800203252,0.6543760388944583,0.5857146033825026,0.5593768355463062,0.5439711207796133,0.5143860800598196,0.49257326466852763,0.5369494578734171,0.5328545707438307,0.5746736032114588,0.6195086060870338,0.6537110188125667,0.6880078095668458,0.6728561702361588,0.6259517305505301,0.6067032257861417,0.5999508597463475,0.5597251764179595,0.5909883387393516,0.6293884781018764,0.6635527951283113,0.6543378184164851,0.673755953774717,0.7016667162219756,0.686138978482423,0.6294661167493962,0.5794250332059948,0.5463425393472882,0.561601173639397,0.6011154163896851,0.6030198533521803,0.5651842229154429,0.5490890429055137,0.5056485100006638,0.4321683384377427,0.3819082218754842,0.2838895602173772,0.19946348161423993,0.12159518353320459,0.051095611571501554,0.19801621405930858,0.2347449069387339,0.33284773679019264
0.4823899381124837,0.5015444562921613,0.4152964917666063,0.41762754535993446,0.377719191693504,0.4019769954598906,0.3794920393924584,0.3752140265255783,0.41579981967270363,0.5060347347536227,0.5632174889453956,0.5535393998109034,0.5066949897077906,0.5409847242404597,0.6131806714431104,0.632071178400297,0.5810682850365242,0.6144467863571078,0.6408036111448279,0.6991123207916327,0.7091306882042289,0.6887938174345225,0.6666242167708547,0.6906679851114899,0.7000978272219324,0.6787967113896846,0.668587894500994,0.7027208090060629,0.6996019881888716,0.6995152629147252,0.7369598767979458,0.7160476010627607,0.7183391346149697,0.6963253535512491,0.6238815072538516,0.6362146168304774,0.6463267177614942,0.6720135484320574,0.7001917424088233,0.7547320711990965,0.7961930672322057,0.7881987935753219,0.7248903612845101,0.7912629537260762,0.7693183060531337,0.7272834205827835,0.701890147859834,0.7270435269346572,0.7426761732354062,0.7611307927709878,0.7146867837425283,0.6748830663985307,0.6574536145990573,0.6461108899494171,0.6330263998339383,0.6301657380635143,0.6388137518458705,0.6726217208828962,0.7472221674623637,0.7402159058609589,0.7178717763710234,0.7104564477156488,0.7253871749446866,0.7499449104832653,0.7376765450754557,0.6960094793511151,0.6959357470219507,0.7206004347679833,0.7602240477176372,0.7757101316543686,0.767822351896353,0.7177645250662776,0.6606836503383738,0.657219141042304,0.7244849491257264,0.7563353618092221,0.6856968880603381,0.6699194921719919,0.6857880856313652,0.7107483082629937,0.7427008664460334,0.7213300330198078,0.644974797573185,0.6156467259206065,0.5714402408343752,0.5696061546342731,0.603013422929753,0.6241132366706832,0.6392024736620459,0.6394178401945996,0.6135612516801507,0.6148577721958001,0.6168051749448753,0.6333804058611676,0.6129328233395109,0.596755946831177,0.6331955412990039,0.6520423781057955,0.6490179479837862,0.5946646214111574,0.5720853407268494,0.5553047213191811,0.5194678935310362,0.4892667704074055,0.5459870525735061,0.5260833183011546,0.5653251454216539,0.633098130989005,0.6546618034452221,0.6955942387030062,0.6922559867581474,0.6184625735817105,0.5932693395838214,0.5839839730890465,0.5458027012834139,0.6014087694975178,0.6331290448764749,0.659944211587693,0.6499031642825633,0.6731344255869632,0.6974160299259327,0.6714795983316855,0.6290129360731594,0.5825752576925478,0.5373789324816728,0.5563860632053792,0.5952524030042021,0.5912461621990491,0.5649431280461858,0.5580902602963274,0.51102560381804,0.4379515919292805,0.39898335952081526,0.3079223661810386,0.2194358997911533,0.14726378547963143,0.06534744750500421,0.1940149274383834,0.24722849797406904,0.33230918467237724
0.40403091579110506,0.446324538393471,0.3906277616732701,0.4008455495685305,0.4142564446470465,0.4627787302487903,0.4078322427778751,0.4337769132259764,0.5006870612471636,0.585296459886137,0.6196932342143022,0.5832273570581247,0.5404316896435303,0.5780629936307344,0.647092764535827,0.6697646448816231,0.6110486639585709,0.6463860869081318,0.6759421093028772,0.7184612518043968,0.7267761201402985,0.7146097616994904,0.7005820176894463,0.7205821066561244,0.7178169596096765,0.7174322641969618,0.7217436377590958,0.7403743056026679,0.7283862714564644,0.7048911738000583,0.7208172747659811,0.7141255109669786,0.7322325176943493,0.708618597201084,0.645374849089073,0.6493462658193521,0.6487264796450214,0.6915731344686964,0.7079650926125678,0.7484211990954032,0.7987241192536886,0.8026721716335136,0.7491334805479536,0.8013280884161851,0.7610414675093296,0.7237581915335821,0.6830423937217751,0.70321248617825,0.7488452445416021,0.7768790406362261,0.731874947871258,0.6779589729386458,0.647026973356717,0.6439491895396128,0.6422406364940905,0.645694090944442,0.6302176980216947,0.6456100066345716,0.7443910483008306,0.748344376852977,0.7298132775099171,0.7261112420079291,0.7277660359999355,0.7535034936409255,0.7412358056648142,0.6813063306817733,0.6949682228757854,0.7234460594703044,0.732248456086171,0.755031228207954,0.7761859410159047,0.7320641630781984,0.6676483597679385,0.6567756309218065,0.6921963853805796,0.71318150011112,0.7011813749271617,0.694417578515585,0.689561360901973,0.7423645186072292,0.7871493831142389,0.7425037443285868,0.6444955396407603,0.619309859098013,0.5857805305711334,0.5668846870121417,0.588885102237912,0.6177780121009411,0.6349724273750407,0.6404051614779375,0.6239886101294739,0.6228825018980775,0.6270484727911393,0.63931356201407,0.6029349598624454,0.5826886100905154,0.6175770177466547,0.6404632286267297,0.6540754245794357,0.5945223559622352,0.5619890459739406,0.5226985960726669,0.45785239140601564,0.4405175930258297,0.5244375214465202,0.5211170807340306,0.5485729677457275,0.5981776632530377,0.6177329727394578,0.6501693966339327,0.6598574511185327,0.6196451493158871,0.5940534094736809,0.5803208147792372,0.5234767384034891,0.5540626444220708,0.6084301985185774,0.653125749038948,0.6587207639612827,0.7001308506822874,0.7111470663723541,0.6436555111711699,0.5628595992642832,0.5124988032223946,0.48232850275311456,0.5259279477615351,0.5927042431131362,0.5942543939458202,0.5437162437835198,0.5274317940584345,0.4686404983517292,0.4017454183736381,0.36424439710093676,0.25253844666363834,0.1632156147594283,0.10291679378175123,0.08352399003673538,0.22927743995579858,0.2825967078644469,0.3601035842461241
0.5783544031009328,0.6407383880443926,0.6097615413064775,0.5922435422216341,0.541036970451167,0.5533198370300426,0.4364512626995602,0.34584832240535085,0.3089346632399035,0.31792977582915616,0.34140154281875423,0.3939163334748828,0.43523049106713596,0.4953272018209694,0.5449842049175492,0.5510527599239196,0.548882559563578,0.651076313495281,0.6925135656388666,0.7471611007583443,0.7445687307675459,0.6996485333121351,0.6927523507264645,0.7109782017304571,0.7015399307359201,0.706411173042834,0.7200129401478869,0.7421573827295187,0.7081145905699825,0.7058567137091483,0.7485703633234371,0.7270019876889432,0.7408664172309706,0.7070113496186415,0.6251577896260085,0.6548842037839415,0.6677827693051276,0.6834510734720163,0.7131942245369278,0.7775223583901052,0.8114037173222178,0.798432053957307,0.7360661228564908,0.7860959402389538,0.7654915878483299,0.7412698135164587,0.7020338518684995,0.7314554680503006,0.7568706588172629,0.7557640419152833,0.721178904071096,0.6879607292258412,0.64285434427008,0.6359002771335046,0.6488270293462208,0.6453801272289948,0.6416138866627773,0.6620934869639953,0.7292519081698186,0.7243964305173413,0.6977207297451851,0.6932787622283765,0.7084605548669661,0.7373477243243255,0.7385630853320903,0.6795504271838795,0.6776899305644347,0.7203378784170625,0.7416714389984695,0.7654547626967694,0.7665311880396602,0.704302613811953,0.6754753297500192,0.6837687214411767,0.7136491522090982,0.7439692259871444,0.7016066698075762,0.6793694702000356,0.6862460614111819,0.731645114355733,0.7691981014891305,0.7463664715456477,0.6672692020772121,0.6299734017046387,0.5752698173340844,0.5476356846370456,0.5922217586102223,0.6476415294055394,0.6588047129997048,0.664162701280191,0.6281109097008487,0.5990031106044222,0.6212498666249827,0.6477170567034413,0.6208316827521574,0.6083434788495636,0.634019690441501,0.6591144915059131,0.6693737955900441,0.5925262250234286,0.5596743536996633,0.5367036650637902,0.492822837875778,0.4889604089758761,0.5626472570159707,0.5352134279703388,0.565128514121589,0.6270692648752978,0.6400994976795465,0.6783663674338559,0.6809205123122772,0.6095529067896271,0.5802735691867245,0.5992059597066415,0.5850465986457056,0.6191355325564123,0.6435244792707894,0.6602865656562307,0.656816205512273,0.6798568384072642,0.6783408433658211,0.6465666934282024,0.5912091846377888,0.5259178968806505,0.501252569736781,0.5187201277247702,0.5308934230610318,0.5026532988871354,0.46356931418220715,0.46711993996018586,0.43876915206858735,0.39367003804758827,0.35860580377918655,0.2502038260062744,0.19028090358367067,0.14448053394047794,0.07036828353968594,0.1966276379458765,0.2288679604450083,0.34345688893038784
0.5661803115855967,0.6052225451300062,0.5230388817162643,0.5013619229062168,0.44645932561229484,0.4660562269939803,0.407649021341779,0.3929741136295974,0.39042075963698913,0.41096114197569533,0.44984197499820777,0.502440769310197,0.5215320548032792,0.539871431076413,0.5747937217912032,0.6075402375519503,0.6110119883013009,0.6975903612391336,0.7087281029118544,0.7282857922349426,0.7377044278552902,0.727538668369295,0.7111389237392203,0.7277377326630307,0.7377795609826602,0.7406042510143287,0.7316486668333965,0.7448472632772555,0.7330193862899749,0.7199260328784389,0.7380869370854959,0.7309365122465561,0.754408717132165,0.723758914913828,0.6687816560308673,0.6919983050612436,0.6812130250573714,0.706182112328168,0.7354849392851907,0.7770974626826797,0.811588193156668,0.7989664652530517,0.7343680812182517,0.8031899329272307,0.7911053381510271,0.7610348684418482,0.7239153962567341,0.742267726035502,0.7503722796445319,0.7637673929220359,0.7286018537388339,0.6807611585105492,0.6531769759036514,0.6470692550491043,0.6425446481742856,0.6409775661809889,0.6398747768373187,0.6710961581085311,0.7421090849073902,0.7365421721090488,0.725891472567826,0.7180928802152141,0.7248039963385198,0.7521036820018024,0.7376670196340455,0.6761870797182804,0.6876771647252096,0.7285131613800349,0.7385422690050834,0.7516141876493683,0.7708413237418826,0.726195913687292,0.667338023755605,0.6622594401384185,0.7029603888767652,0.7297199792647547,0.7012519508631646,0.6852683761171199,0.6965115055546796,0.7344043680463646,0.742029921356833,0.7213293257216298,0.6559670687044131,0.6224899154098347,0.5872688453705153,0.5801160609200194,0.6079151045344373,0.6354900873039634,0.6465776085065734,0.6449029937773495,0.6177636358678726,0.6162180017366795,0.623595097019502,0.6407977122962929,0.6182621622963127,0.5963130386852429,0.6282124316803674,0.6484616616769309,0.6396563968494275,0.5763218360141096,0.5523283431156434,0.5295787399017807,0.48164267193679344,0.44021729619708905,0.5019153561338521,0.5009259750357854,0.5458851927385654,0.6225028705116493,0.6442997275147248,0.6663206787995596,0.656514494411937,0.5899611594002304,0.5569450943127243,0.5464395458176288,0.5032160709496157,0.5514913307910017,0.5989167717514586,0.641445093588266,0.6543620121802561,0.67659597566439,0.6706290466627327,0.6168387880663893,0.5548866914912589,0.5028567503515434,0.4770270297694692,0.5153723904513791,0.5649533611679772,0.5521441326390869,0.48917376085825315,0.47523254572462004,0.4393053616094231,0.37994336891798963,0.34434917356138445,0.25119840823847256,0.16791019062973928,0.09655118420590203,0.06938022608287642,0.20533719819121155,0.23494741272468284,0.343450204641505
0.47134567836940716,0.49186589506355627,0.3827879490975569,0.3751150964397881,0.3346914996556855,0.364883732225659,0.3422151976813603,0.3429968319879981,0.43654614670732395,0.5161366825388803,0.5555383550588004,0.5362826139519979,0.503509974621615,0.569822896898326,0.6479315245287471,0.6443196217871989,0.5819896833549806,0.6299185141571348,0.6389710195103157,0.6745334764582163,0.6798223713307537,0.6664622112947305,0.651643971475507,0.6720759126449334,0.6892201083464106,0.685634597590252,0.683031079343923,0.717515267395758,0.7032980161932259,0.6844363791875765,0.7166586917041412,0.6954065373099412,0.7065068331128146,0.6806453198022634,0.5971356355583397,0.6295257357810016,0.6147069863162145,0.6225039208702601,0.674775527958279,0.7379054217658125,0.7767921843099608,0.7604501047388026,0.7024152201197891,0.7830221817620242,0.749738346516655,0.7098220503283013,0.6721265806228531,0.6798678365131134,0.7153257441043588,0.7432361978663052,0.7115082566592473,0.6400449744250903,0.6085511488289018,0.6155449047610803,0.6186522080331389,0.6303141547058974,0.6462624281696913,0.6763784365076511,0.7285785553744423,0.724388447269022,0.705758563122816,0.7140916272258103,0.7299716560442074,0.7296741432785085,0.731135425124928,0.6965476968233155,0.6752212759831928,0.7064755026429458,0.7433406537106193,0.7481889708458662,0.7469316722862774,0.7106864870104741,0.6647703623796406,0.6587968416847396,0.6938612533757058,0.7209424636629091,0.6969772856682207,0.6713214795095594,0.6614534053476626,0.6962463764251057,0.7165948920498714,0.7044509855693324,0.6395064610714414,0.6033328630745537,0.5679341988278619,0.5416483142782816,0.5730719904283458,0.6091017338841,0.6285800592014323,0.6370909083082679,0.5993163512482804,0.6080327631098796,0.6229410048925055,0.6328028410990111,0.6165496414267064,0.6249986011728811,0.654061903869015,0.6615695881188681,0.6805962432690513,0.6125466098814238,0.5737297981414929,0.5539268557483816,0.5291835393039251,0.501972570654955,0.5551088081635627,0.5522582900453181,0.5781161330420386,0.6299656238507715,0.6597478247046954,0.7044906341801135,0.7025056172879858,0.6560148122708216,0.6398136564231276,0.6332061188534,0.6008493473414049,0.6273024729272021,0.6624759015388287,0.6950480497748015,0.6918392021247417,0.7007761899076084,0.674834807863034,0.6319203061809694,0.6238558934172755,0.6131802864636934,0.6032361900882063,0.6101163267157704,0.6197762584923833,0.588716916322597,0.508904737762111,0.5124718070583822,0.5502512390397742,0.5447624486479933,0.5332378432937392,0.46609486731451005,0.38515130307749507,0.3321985276369897,0.20110978038063154,0.23082628173582487,0.10577478158734194,0.1730325996177654
0.5503555485608994,0.5977749659160019,0.5420458664214433,0.5440089986567057,0.4891207083517197,0.5081685927115153,0.4074806097788615,0.3651621401725412,0.37628703004001146,0.40685495426885915,0.44021164881867925,0.4855947798779376,0.5191358320920807,0.5433218191028393,0.5588260844715184,0.564198918392392,0.5516087311292104,0.6458186542405561,0.6896106327714997,0.7179202378694508,0.7319901629263554,0.7280284835683022,0.7025384163161813,0.7229565062197315,0.7434269946938709,0.7290811312739914,0.7071288286224304,0.7353964132476959,0.7240947512187823,0.7082414454378904,0.7485185687378998,0.7346351431810638,0.7402956273107342,0.7211754841097746,0.661126418960561,0.66999762800569,0.6676439199744526,0.6861487402145624,0.7125184629883402,0.7722513539060553,0.8073418695945461,0.7982172224431197,0.7538184701010705,0.8205993615613711,0.7862818624531106,0.7502588014304696,0.7097481847000338,0.7245165355840342,0.7473477225085212,0.762414891112974,0.7282273240148264,0.6926832979204887,0.6687442134310494,0.6697074739855159,0.6624022839737604,0.6480727366489557,0.6508036022821941,0.678268605979544,0.7364722557146861,0.729692714406983,0.7158104412725523,0.7089660402370125,0.7263325770325406,0.7495219546089573,0.7318622153057062,0.6726967575927272,0.6697750726716157,0.7179433838175692,0.7614448248300614,0.791559118502574,0.7992876017813602,0.740879189123343,0.6862399695047827,0.6776295303199039,0.7110224467388636,0.7427465120554451,0.707306498823676,0.6844184713119574,0.6974529644014993,0.7501603000679349,0.7740014081368072,0.7411549751783509,0.6673619597118571,0.6341932253848036,0.5835052891488581,0.5795694477942598,0.6247476919809545,0.6620586380108737,0.6907040901347623,0.6916432300109161,0.641909281026958,0.6442565068942958,0.6708627803266796,0.6688564425993783,0.6268252071981797,0.6124436839335897,0.6419053535409809,0.6593964747052323,0.6623858438218632,0.5866519609066476,0.5550879995039778,0.5518727939514504,0.5263861694091447,0.4861525638785295,0.5329420666363153,0.5342701669880688,0.5641270996039423,0.6185144563334452,0.6537678038890525,0.6804177018917439,0.668772857875849,0.6053179928545958,0.5568748015054777,0.5327556230560118,0.49993849426029513,0.5633760546856819,0.6212655357767617,0.6648297583509541,0.654079597385747,0.6429333387680922,0.6213725346938186,0.560776713160028,0.49216103764049707,0.4378427830376781,0.45031604500573064,0.5286168718392061,0.564407130372216,0.515206301868753,0.43721358857599457,0.40887029175730116,0.34718170379153557,0.28768370277638483,0.2562949352872502,0.19383380245113607,0.1317299551677057,0.09183282637368773,0.12686455892383497,0.2693943218331597,0.3174596817306057,0.39343940232675506
0.528608998960654,0.5386607447592459,0.40305441400512426,0.4043049689554219,0.36794941350951393,0.43697215851415844,0.42583589141942263,0.495180350996716,0.5847936096927051,0.5806698770851803,0.6115892306233772,0.6209404563130562,0.5758108479962294,0.5719359939180788,0.5981056013820467,0.5939320278292312,0.5426280075863383,0.6070870075175847,0.6281159251859835,0.6593157108191101,0.6774686295022585,0.6599484172483598,0.645839164364771,0.6762462261576063,0.673095318996284,0.6743965431728096,0.6613545646865339,0.6800933620760872,0.6681585122063421,0.6548267116587855,0.695338692964055,0.6863044053264341,0.6947153530270116,0.6598220635613334,0.5929931297099762,0.5951987702427541,0.6078061196796599,0.626311185588478,0.6316961880376103,0.7219006704580182,0.7739199381810528,0.7548173531453837,0.6998207482823728,0.768690167168691,0.7434463364479112,0.7011523998319507,0.6689118592389749,0.6772291539446106,0.7194676227401869,0.7317616343684279,0.6963173548895366,0.6569318615422088,0.6323223814174489,0.6370909364474054,0.6254560711789352,0.6192198130007182,0.6300049716442242,0.6551539472606087,0.7113595857766377,0.7111198714450828,0.6888572178763246,0.6699464586292475,0.6920672038063616,0.7056990247479245,0.6983635301645441,0.6699565536429909,0.6389299636828131,0.67227433222506,0.6962337845788266,0.7146500869578662,0.7147572998921182,0.6663190164699326,0.6277395942340883,0.6283455969032874,0.6795054846695219,0.6828355699982924,0.6495890609516582,0.64636106764528,0.6544725830395995,0.7206894501046788,0.7401000717140167,0.705930001145118,0.6476916126044137,0.6255131758948017,0.5886702616339323,0.5623850105319224,0.6019334327964159,0.6457165307541318,0.6637999709402311,0.6524942989305974,0.6151987629343623,0.6221969459061837,0.623464333034855,0.6484128537463902,0.6148893310816572,0.5924805863792486,0.6314610432885972,0.6592757294716248,0.6519073543185436,0.5785609949407894,0.5361080218928296,0.5101944408674106,0.47993425977914034,0.46497608145692293,0.5474961524424655,0.559556454968692,0.5888216800120459,0.6557510328952056,0.7141828920748186,0.7546056623120816,0.7818385173738143,0.7524573130449032,0.7560430524556205,0.7816618093789685,0.7361292052738495,0.7361379398401862,0.7509226025017328,0.7593594505240875,0.7290958140501869,0.7172212446794191,0.688120958859855,0.6250324244096808,0.5595344084172059,0.48532996418239915,0.473781630647167,0.5537110954034952,0.5916460813134456,0.5499295096954372,0.4796286682379678,0.46356975113889576,0.4763065475739186,0.49157836707943214,0.5136711944601485,0.44906162376315106,0.3529974618563545,0.284673856499164,0.16017119063503843,0.09633704196937443,0.14768142905903703,0.20871079927643685
0.5547925874174388,0.5920038450481108,0.5596248542388287,0.5307919565797218,0.47717911973809796,0.4852933910953111,0.3773291363505932,0.345134763025864,0.33768616343338437,0.3619949955159673,0.3885426744889786,0.39790537310285634,0.40932295909077043,0.4634197107200988,0.5033870154724328,0.4987279292017702,0.484378017826505,0.5702823937313217,0.6258777343513979,0.6807626046864125,0.6869446894716594,0.6610608251027618,0.6523232033896506,0.6872638104617886,0.6885961703925573,0.6813214689326664,0.6667494656982127,0.6859473538713877,0.6886002626691667,0.6733699160779193,0.7004346508977559,0.6991465618332274,0.7237482689101471,0.7048351114969915,0.6367835980709442,0.6458823190275854,0.6487858337480952,0.674843573257231,0.6918215917046232,0.7428977521972845,0.7856418021232006,0.7827396898840492,0.7293624051220707,0.7811586197662257,0.7503205073859032,0.732373335779327,0.7052409565137339,0.7115768606710656,0.7279845615373548,0.7487187371656435,0.7159303382242633,0.6783861347044372,0.6534378366706002,0.6442991103795822,0.631035011191192,0.6329066913678536,0.6443937904987934,0.6641901781077412,0.7322094859130015,0.7395628287915169,0.726909551967793,0.725801191612607,0.7387038568675208,0.745995545765197,0.7433147057849676,0.7112098905859001,0.7016054668973252,0.735257280899491,0.756230282066983,0.773795748943807,0.8084232739423857,0.7527333688501243,0.6812432558524154,0.7029451783967948,0.774067944320176,0.779194336720991,0.7284295681358179,0.727295666322278,0.7370618819620214,0.7672911474238248,0.8071450484637878,0.7885385194697925,0.6935483834284397,0.6684465708072285,0.628808663405448,0.6066866589788931,0.6515314151089914,0.6968945670985235,0.7126298832273623,0.7134689668101756,0.6811035647362981,0.6796218740628205,0.6805922482044252,0.6769488004496689,0.6487033635828474,0.6347962635661707,0.6722028954759353,0.695452389940723,0.6842852573577377,0.6137072163670926,0.5924671930583322,0.5680724806787508,0.5360260415625845,0.5139307953952985,0.5499193861708693,0.5362660564830519,0.5685607078794384,0.6136765477642374,0.640952188960553,0.6752604847467637,0.6621018620141574,0.5937330293826547,0.5487181501457312,0.5335623367861096,0.513310415089267,0.5801046738850668,0.6339952192790537,0.66494290030479,0.640370958858097,0.6396581359411906,0.6368455678666918,0.5864487950185265,0.542270078701622,0.5316332476525283,0.5445362423590225,0.5814661635363072,0.5984591372314954,0.5326641226681808,0.41899477637122867,0.3629517544561854,0.28165030251267054,0.23395705650505494,0.19328850802721143,0.09414357767230008,0.09236780465739403,0.1668377254076001,0.2838703015469269,0.44478632372025073,0.43279594398530075,0.4777087310003535
0.5888777985000213,0.6359969602072751,0.5747348748748919,0.5549800389357646,0.4665921059144519,0.46400819472104554,0.3676307443043822,0.3068845267874767,0.3068577195391001,0.34303478025856304,0.37297349815822173,0.4151490718134196,0.4326491493344836,0.4779424017828195,0.536527008540075,0.5462808134107698,0.5282233882077414,0.6240290759096632,0.6759383154959264,0.7159881733410856,0.7283521105710282,0.723507137099303,0.7096013063755493,0.7135760429100747,0.7064778320724764,0.7045670564258955,0.7038073878349091,0.7304694659007471,0.7247907291682136,0.7159527914176885,0.7374585887550333,0.7105888354522516,0.7165653894148315,0.6909031326309156,0.6317800034251084,0.6627877656360656,0.6653776059273069,0.6868621328576355,0.7145131173639714,0.7703354306516624,0.7993384574213723,0.7765076845946269,0.7246423011846644,0.7862245852742648,0.7402355904745134,0.7004824666709655,0.6824129924597857,0.7154803686243933,0.7539848851755997,0.7521148657377548,0.6931563082355934,0.6715040295002358,0.6447196342660886,0.6290743190063912,0.623514967050683,0.6164990026757561,0.6231557712278478,0.6433826724944397,0.7079428507880133,0.7192611711455079,0.6971005123778213,0.6792273701484947,0.7165510688267924,0.735901289211338,0.7098342092094903,0.6703041847032579,0.6613007205287289,0.6979798327455222,0.7286842698610596,0.726105638175697,0.7315371397944044,0.6978968873354136,0.6599337796788072,0.6544858243292372,0.6953257470880275,0.73751898210239,0.6939621104531954,0.6695913258552302,0.6784023941981949,0.7073611235858176,0.7398351588111127,0.7441589851183361,0.664897761908831,0.6312071448179516,0.5962240714773578,0.5779510074743118,0.6104484301350135,0.6400024280172034,0.6665064563827455,0.6799243618477306,0.6333462513579042,0.619451952517064,0.6288252587176102,0.6456700995485284,0.6181838628262859,0.6039954815330418,0.6488738556765381,0.6715475840252714,0.6769506908401697,0.6035156530890959,0.5635519789016817,0.5504553238729148,0.5066679586944233,0.4882590905721915,0.5598549806209625,0.5417450681046154,0.573815249251503,0.630598349898681,0.6627972168107481,0.6929756215921229,0.6745223193696239,0.6130742855250871,0.5870985769556123,0.5918703029482637,0.5627783546272488,0.5900431737548375,0.6235823358832815,0.6628311433774948,0.6677025806719101,0.6949657739410546,0.6987633679826043,0.6471035626471991,0.5950841237859118,0.5608162189801537,0.5324210509091482,0.5688675338712047,0.6324940234296722,0.634203481659965,0.5728454110066699,0.5372342072481685,0.4631397862374266,0.3715229262999518,0.3198802550883122,0.20282164254362817,0.1067751577482573,0.08017354924453712,0.10729397927801582,0.28826563988510756,0.3351609014806247,0.38496182026080583
0.5224242692505003,0.552220966936923,0.4737377615729244,0.46635288894748694,0.43430235307209825,0.4680866339812656,0.39323259462136984,0.3781135584997607,0.3952399362581755,0.42573094648637216,0.4651612802736911,0.5072993166268744,0.5103731792804334,0.5160177646106865,0.5545386755509012,0.6090319007976435,0.6170030291998936,0.6955307814284126,0.7159483289230626,0.7348497096472173,0.741317791209075,0.7341433033197878,0.6950208849535975,0.7052884458470356,0.7332076637188367,0.729508216971534,0.713145178578602,0.7326603467683094,0.726224470843374,0.7268590921336584,0.7503013602689882,0.7216054745395883,0.728244565611453,0.7062706992957242,0.6539768035709378,0.676065780272139,0.6711667371522114,0.6968289332564569,0.737210061760198,0.789263069250494,0.813708384063208,0.7992008778139217,0.7389410421078026,0.779363599593133,0.7417350846027593,0.7200065375827222,0.6845128126749417,0.6943874801562213,0.7363245707243952,0.761682397425032,0.7135304381423411,0.6791463828326921,0.6586753889506497,0.6454724015858091,0.6391865120579883,0.6413911403144459,0.642101607512986,0.6626770201548322,0.7272081918569301,0.7154644191593319,0.6848347602830681,0.6804083856281912,0.7214959610579273,0.7552706139367485,0.7276867741876252,0.6634878637876084,0.6424312855645895,0.6592248704735936,0.7096150341234043,0.7371104136393226,0.7348799929027097,0.7064745376519582,0.6463358247994306,0.6410745595711437,0.7108683662265747,0.7128980932197937,0.676350500306758,0.6860550150120485,0.6882886766337445,0.7232966483335295,0.7570614304422332,0.7373793646219279,0.6599099301801721,0.627194814488713,0.5877785963392945,0.5727204650792936,0.6039385594221026,0.6431456196707878,0.6658560972804376,0.6743831503760299,0.6442004341838385,0.6312901756865299,0.6412739861949448,0.6508229413268429,0.6152103055528025,0.6099013758378755,0.6563076641190047,0.676291842446624,0.6772572721756825,0.6128608902110858,0.581780793139643,0.5524902065122,0.5160832358286002,0.4947763539476048,0.5524519199830195,0.5548532503884206,0.585296225067627,0.6340297035035138,0.6533227476004689,0.6616076523999624,0.6538532776809387,0.6013156301847005,0.5588658853856313,0.5573940844087327,0.5221654549978968,0.5562104233866848,0.6137143753964707,0.6568569480438295,0.6550300405630546,0.6800233857086073,0.6756917856016574,0.6234011398384505,0.5757337329457377,0.5231721706732759,0.49171642189699627,0.5528615224802738,0.6188856177053876,0.5993093476920748,0.5293811010376924,0.506942220499459,0.4390331588013946,0.35894167944104727,0.31175459187091004,0.21941098341896265,0.15220990875227952,0.09397522182893336,0.09545440760874846,0.24701859031046886,0.27850337823349997,0.3642069372840297
0.5525137417875264,0.5993064563438544,0.5230743491879348,0.50658104631565,0.45856604370322424,0.465928328475076,0.36715016767858694,0.35149349966504184,0.3625861519826532,0.3775008743023603,0.42980279713983915,0.47697628855474583,0.47382103745514104,0.5093728154875964,0.5510674835540872,0.551560281968291,0.5447895688661909,0.6443716794983563,0.6849738978551544,0.7162838462881358,0.7242804585099388,0.7134413425392109,0.6952475844132655,0.7092160857958929,0.718556598081405,0.7228116053530014,0.7126751772840744,0.7248312747743569,0.7163056569946987,0.7111137043083864,0.7335738634583556,0.7106845856432739,0.7245522038440491,0.7065816621706524,0.6397619572270149,0.6550002044206712,0.6629321938649766,0.6704164987562,0.6890768177701664,0.7664909479940752,0.8027088108943208,0.7887553792667177,0.7375199693032581,0.7920304085490053,0.7682584474309044,0.7345810261877612,0.6804655741993266,0.7168952825060962,0.7674143863747448,0.7646050194400343,0.7065075110785719,0.6697327623779995,0.6491075820696403,0.6460956285766563,0.6275184620290708,0.6119265628692585,0.624007892065257,0.6498026576012855,0.7128327215962198,0.7185626126118639,0.7012489352041416,0.6832639067357767,0.7019986873121769,0.7265850852148583,0.7098465163727804,0.6568979186707555,0.6428097851056104,0.6758058749972626,0.7133077167953096,0.7211143998997751,0.7172660938242623,0.6839132759961717,0.6456256194397286,0.6364946484231593,0.6702470914373005,0.7080122545170915,0.6733465100599942,0.6558679402254157,0.6833179989759122,0.7374330345021431,0.7649198336156291,0.7473655313238236,0.6628636124458578,0.6262732126422044,0.5952143610070606,0.5828986327834139,0.6154539916913053,0.6547760625999534,0.6629774336310144,0.657823662931639,0.6409023793202239,0.6409356747538263,0.6432254226885233,0.6607355046644006,0.6418289990613593,0.6251507835109972,0.6542193386081895,0.6842641792586144,0.6917781389759764,0.6167245953018787,0.5953162149323312,0.5764451929386444,0.5250203592792848,0.5033854046424728,0.5657517511158735,0.5570865450176816,0.5799067027704599,0.6294012029183643,0.667443614569333,0.6895844455249367,0.6791008727915636,0.636716167524894,0.5978473484369806,0.5707185345732716,0.5406457036401301,0.5791747015490963,0.6099273068767896,0.6637205747244759,0.6829249066564119,0.6956003706564664,0.6877459954065994,0.6338039681097523,0.577400319435358,0.5343609079611286,0.5041316434540044,0.5504312113438433,0.611663551283414,0.5988344184684788,0.5385139578271849,0.5260733582372313,0.47830401983777104,0.40635326902373137,0.3436220670453053,0.23625727673622138,0.18122013671726717,0.11961952224350192,0.07908034787196172,0.21010053180434413,0.2563956201623268,0.35264902370106554
0.563997415712629,0.6059974837614021,0.5364437523240241,0.517035663690998,0.453738092551197,0.47298849375561614,0.4018536999536233,0.39035033822940246,0.40027441790234064,0.41936313510201606,0.461244317680949,0.5071163752531525,0.5061810971258024,0.5150729775558174,0.5429862680315054,0.553943558296625,0.5540035336591893,0.6510519158630443,0.6890224044381087,0.7358557370195031,0.7348944917176751,0.6954290466559968,0.691459856770226,0.7239545945781298,0.7198290504307916,0.7174240112815748,0.7072087259116323,0.7248737354088297,0.7171203604541173,0.7083019755722946,0.740155158050125,0.7171706853916788,0.7325816077955442,0.7270495795645184,0.6575744513497169,0.6540208764526789,0.6662044828806435,0.7059060948884811,0.7286041717387892,0.776121422004598,0.8111577706898008,0.8022604711749104,0.7523960390480022,0.8161220766453045,0.7793419765674182,0.7389881890140404,0.7111857559429404,0.7381385749211791,0.7442078235421568,0.7409285125625504,0.7096864770347764,0.679424105248662,0.6453708402578876,0.6362811175111289,0.6327507690283914,0.627085975773054,0.6307039538698388,0.6547444739412538,0.7141823308493261,0.7084762197834209,0.6939505769868074,0.6964483859234514,0.7228705886099928,0.741549532063436,0.7219265140328711,0.6627048299718153,0.6456039985351743,0.6866155111809656,0.7265388965765991,0.7335602271613674,0.7344876057478328,0.6948064190052976,0.6386916172499106,0.6381344515929436,0.6761172904334543,0.6864439311759755,0.6794738210005948,0.6783581428036284,0.6769356395623697,0.7330736535296869,0.7644612868446682,0.7356444525314896,0.6640306918560429,0.6279743864473286,0.5869173672190979,0.5719362069400066,0.6045373370670024,0.6501648312283846,0.6657963844404323,0.6723864213972763,0.6577372206765912,0.6469354265484484,0.6508213304505217,0.6651020830968033,0.6301308213192942,0.6166606981754901,0.6614433723200017,0.681736647260557,0.669110200569312,0.598801016144897,0.5821071711229227,0.5677421825885338,0.5373664461875076,0.5125160475875385,0.5554189622032963,0.5536370720327989,0.5840838991000314,0.6263675735306204,0.6588755712708199,0.6911681872531154,0.682177894950458,0.6205448389898658,0.590516653752249,0.5954885192721298,0.5464703985263041,0.5701693577484239,0.6266249443350995,0.6748223819359063,0.6789201108040733,0.6882660290867412,0.6611560197120934,0.6024906012598737,0.5535824908004134,0.49358197075477017,0.47576313578109564,0.5471687303990938,0.5916867443610226,0.5452407959759713,0.46054641302179267,0.41800023361673977,0.33307384446321475,0.257597579788808,0.21336543062156577,0.12220151058583872,0.0712601442923031,0.08967395961124136,0.1680705498309925,0.33950303076754806,0.37936907300434497,0.41980998093273253
0.6400617184828727,0.6879842558740521,0.6770515616196892,0.716604194199905,0.6674765720697545,0.7160916251626469,0.6718967590960625,0.6852531830106807,0.7227832885700677,0.7508540668149254,0.7941509048621884,0.8084939450398909,0.7714863200980946,0.7706429399220202,0.8307596647393728,0.870053260169964,0.8236181525678568,0.888396002424517,0.8923110505743512,0.9119724511630118,0.9134978179466682,0.9075299101677072,0.9110045718480834,0.9313538166606006,0.9458075825949392,0.936892362393821,0.9408199897789649,0.9610689830704813,0.930356018847787,0.9365535144387489,0.9450312232921009,0.9007481181173401,0.9165647478306833,0.91145733153927,0.8890157506159408,0.8877859128992881,0.8544797399610843,0.7888742508537898,0.7316366216770549,0.7439300609346193,0.7660470818623701,0.751792770626455,0.6909687388285076,0.7395476665133419,0.7082943063147716,0.65624203553121,0.6049924677634868,0.6258685257276227,0.6549468717974184,0.6592851508614219,0.6241690842089033,0.5909999895103943,0.5558321385250474,0.5456157823341417,0.5281523852339854,0.5331410904064947,0.5513038858004822,0.5641738551016643,0.6398757049053149,0.6463044914717865,0.6107356495385684,0.5954925284313121,0.6156149317123816,0.641033206371679,0.627248910188455,0.5485546066594067,0.5225954580718135,0.5687915465761679,0.59748327176692,0.600446089647205,0.5997842508460826,0.5623404244323726,0.509424365410346,0.48146501664943164,0.5103614221609973,0.5476408805035494,0.530675389323607,0.5453230412242783,0.5709764432166687,0.6071096864512031,0.6316479853835373,0.611338630989342,0.5375992018107862,0.5052005228914865,0.4701590823944807,0.4567532330072229,0.4882508610490479,0.5191490541473909,0.5312232242570419,0.5324824058662394,0.5112205197120905,0.5038737462988843,0.512367620215751,0.5430649646523437,0.5284693257212593,0.5207580797608223,0.5547609314315252,0.5722399791465196,0.5729436298779267,0.5084310351029526,0.47087521425645795,0.4348263011494324,0.3774703376715541,0.3288424839693661,0.3859212879713844,0.40359839937062103,0.4455516097888879,0.502847419303197,0.5322819029556274,0.5703038554124041,0.5690860237925762,0.5059940926285635,0.4627605327006093,0.45988489784525305,0.40965282527060964,0.4455519553297979,0.49229475768232905,0.5304528915762372,0.5461137731638586,0.584660823710081,0.584851417817639,0.5261166946860066,0.4860006341351288,0.4453571386674632,0.4201773580388565,0.47462706651911135,0.528741530816052,0.5017603091545004,0.4473970819263192,0.4528361552946928,0.41542955818499017,0.3798106794556264,0.3584044750744932,0.2753798714818584,0.2224483830691148,0.14950044618967956,0.11910969668018251,0.2161023129845116,0.207476336647823,0.35145214323349144
0.5842971898328688,0.6369044297447315,0.5790290528124256,0.5498201056207928,0.47619247448668567,0.4865186796420448,0.4060521260926135,0.3628172772416599,0.3500181143964534,0.38857797524799403,0.4096541278135232,0.41821268130229383,0.44462811098109284,0.5066590254833753,0.5580477724269153,0.5660494246384704,0.5411300793068187,0.623193976327131,0.6843285060307367,0.7464056438996328,0.7548292790032212,0.7293259532817424,0.7138768565829606,0.7354654414186482,0.7507766174923779,0.7489540374465251,0.7225087353142227,0.7433612536788002,0.7459229018507303,0.7298838947587689,0.760668328697367,0.756175452693895,0.757283892336714,0.7227661008236913,0.6702118309284033,0.6771260034503886,0.6821837380737978,0.718251462910268,0.7181340906532265,0.7704673074448494,0.8198752186281261,0.8071293119198426,0.7523890542346359,0.8132961524437365,0.7832456716380618,0.7546761490008154,0.7110564330422436,0.7243888944238686,0.7426458417162385,0.7535356054662773,0.7222803623713334,0.6835979636307087,0.6487509873958306,0.6340885829718418,0.6191303047207019,0.6146953574808254,0.6193124686564369,0.6455129841306707,0.7191821822471919,0.7138264874300142,0.6858850206179485,0.6825355506471841,0.7038418539994767,0.715736103797659,0.7013589468823797,0.6431176842496695,0.6278678431628498,0.6880427801194746,0.72305289514603,0.7184766969061918,0.7198897084741305,0.6744095379848557,0.6307388000277835,0.6269310864712673,0.653563816184293,0.6865943855880392,0.6558628501619217,0.6405126997737965,0.6607697758020249,0.7093488108514299,0.7433231738662157,0.7380622312666294,0.6651531144698822,0.6228474147763657,0.583386058556036,0.5801826585466952,0.6117396717481558,0.642213671609645,0.6613296616604721,0.6674456437799617,0.6396071816329465,0.6354920269756444,0.6477490013355551,0.6556756120387514,0.624110441037792,0.6180525680447312,0.6584300965635347,0.6775730975581313,0.6730571721587681,0.6070015636308247,0.5878597141205599,0.5588684852164663,0.5178012932630138,0.49666617065118657,0.5384506128496532,0.5327970669177853,0.5587135805727187,0.6065588649301099,0.6620398135941861,0.7000898467535182,0.6788410833697935,0.6155978064751872,0.5774609574597738,0.5576045827515486,0.5216651984119692,0.5731663896534859,0.6256333415672581,0.6766187557523542,0.6742189386472777,0.6758406874261167,0.6676703304874096,0.6211440108565867,0.575695886600698,0.5270325419979643,0.5055783531482569,0.5710567497559323,0.6127136431429695,0.5571473117332466,0.4665455375436509,0.4219900116009983,0.327457008148542,0.25129225180233966,0.20734395794317156,0.10988778632649698,0.07426321543478231,0.10103386074757514,0.17483114745604822,0.35284324955613183,0.38526299847111634,0.42550329212343263
0.5617453956928834,0.6033269613119043,0.47656044107573614,0.44965315898869673,0.34557337018623613,0.3509780874356149,0.2795855821599516,0.2648864113965954,0.33028701023146284,0.44494257281489835,0.5148467203419638,0.4975862105063308,0.46199169981850763,0.5451187555203212,0.6166171105711082,0.6165316309177276,0.548691917389252,0.6217344425788042,0.6332087569168398,0.6768708400709403,0.6890189752252712,0.6652800369062877,0.659219236488181,0.6799585310580902,0.678533627403797,0.6651997283061825,0.6562176998442921,0.6744323083689503,0.6676182608059502,0.6564621642319681,0.7009032475457788,0.6724018778661899,0.6847866445244035,0.6609513400183319,0.5768077747880918,0.5813155511836648,0.5885105178338018,0.6142736936044414,0.6543584952669124,0.7081201939577344,0.7430683628400231,0.7371402319066034,0.6803337424833348,0.7380830557418693,0.6939100712149414,0.6505086236361693,0.6028944089716279,0.6189121582942284,0.6593376444850036,0.6731178270817607,0.6347803222587509,0.5985249670419477,0.5736335944540538,0.5932657611751566,0.5842504975338487,0.5742271960383774,0.5909582079154796,0.6028604640324283,0.6931375267554725,0.706570723002547,0.6871800310919816,0.669703174378403,0.7011846239686762,0.7313538665018574,0.7202050776595653,0.6808858625801129,0.6558823125726974,0.7039474945347509,0.7109889396101918,0.7593126520114222,0.7384714677881387,0.6893425780810324,0.655610052672043,0.6382694009858481,0.6633871258308556,0.6967327937793406,0.6625337477591259,0.6466037011841094,0.6741318970410927,0.6981540713169517,0.7272792990482975,0.698117266997196,0.6428806738560501,0.5922180860966471,0.5573169118775994,0.5623765750904489,0.5899378403200681,0.6303487278265791,0.6515609674502896,0.6660824573224751,0.6479261734989665,0.6368798369980275,0.6407584573660664,0.6615516133086876,0.6417705620425929,0.6326293648371522,0.6734279827565376,0.6808352103113746,0.6963983233572697,0.6174954214101247,0.594809007505297,0.5868861141343363,0.5398949079913772,0.5249225340864243,0.5639349077251539,0.5651548709957555,0.583458271973461,0.6292459297980645,0.6679372721312364,0.6803464063761071,0.6630877914633885,0.615631505109569,0.5782351335416729,0.5599909594361226,0.5321491148523134,0.5640521451406703,0.6161623883840537,0.6587259475484788,0.6587921045052828,0.6621304860513146,0.6553325288846957,0.6273741568455181,0.6216146350984205,0.6347711470976143,0.6654725283550923,0.670589940552947,0.6968931805566839,0.6725929188775875,0.6451629487822298,0.6960379017847373,0.7605101712403252,0.7325763891980408,0.6917688277517109,0.5564960409653458,0.4341936482883612,0.3032444384588879,0.148756340402244,0.12291497342785324,0.17624722199745302,0.21910560954119251
0.44516543894577054,0.45038102328020224,0.4047064231360221,0.5081834195148819,0.4623837211013626,0.4910440293315281,0.4748770498612345,0.48789312706009047,0.4675544139962339,0.4187959207378428,0.3832780448070699,0.3523387469931508,0.3019834026783333,0.3042431907043756,0.32613323770612707,0.31304880338145225,0.2783374705108769,0.3031528727392479,0.36765073166148843,0.45914225484911053,0.4851605478020111,0.45251483437755957,0.39298173786472634,0.41096209872503264,0.4245179079112691,0.446246988510284,0.4735263463678735,0.5179605548625236,0.5084847879788976,0.486334365366144,0.5351768342947194,0.5179958252258725,0.5212408480729238,0.501116524505098,0.4334605218281037,0.5019490679254722,0.5047040685982582,0.5003589333629943,0.5265533681574408,0.6316035801371761,0.6894251164385529,0.6753289270378304,0.626413785841881,0.6933917962108574,0.6577227775961761,0.5845420410248511,0.5474366367858035,0.6024211907239815,0.6640971373066291,0.669031082311748,0.607075748842528,0.5853635971610316,0.5874509627962609,0.5773730206011094,0.5345170860395781,0.5176902987290622,0.5438411946574129,0.5902573296763118,0.664919728996406,0.6654601278693396,0.6547169873219858,0.6496586574500223,0.6532285560673815,0.6620774592099257,0.64723299660848,0.581860365802693,0.5492829622670313,0.5728816410759637,0.6009338198300257,0.6020608957444646,0.5843279949377412,0.5403533941558958,0.5235931040222995,0.5502637945876464,0.5990631507042382,0.6152279608647452,0.5865647671399077,0.5964728899665812,0.6271567852458076,0.6565736975131164,0.6497705457066605,0.6225664792532147,0.5825751377860463,0.5815147268685394,0.5489975894620497,0.5232475022166487,0.5502210900324846,0.5977896799500971,0.6238757146552254,0.614634044093857,0.5747772180655691,0.5788733530637717,0.6095436781921407,0.6261037037861977,0.5809153563263058,0.5683222948268398,0.6327498716137238,0.6879326558706561,0.698869968036288,0.6129012589078335,0.5680620413282745,0.5594398870922084,0.5682652849928951,0.5860220736522228,0.6396609175631213,0.6095851101101302,0.6288654053917169,0.6956524188388947,0.7520170651291123,0.7899063455117203,0.7794512663305451,0.7045172691774592,0.6693784574923783,0.688117999055361,0.6940020671349413,0.7382580949655918,0.7669476377056226,0.7880510930930178,0.7775619438242999,0.7841078197098474,0.7735871491382911,0.7542850714761754,0.7444956178728059,0.7391039422495022,0.7281755200032191,0.732365367116679,0.7473456895707199,0.7452052437074111,0.7308637368490589,0.763583135106301,0.7902525402542806,0.7771188757924328,0.7794406871915455,0.749827224877081,0.7546944192235803,0.7448435489647306,0.7340218783927747,0.7319685919401211,0.7130684826988146,0.6208461405642222
0.6060515823437775,0.6930266800306996,0.6952155343111731,0.7749383839239979,0.7498104143475293,0.810533802367528,0.7486052745551268,0.7321921550426947,0.7464442908026997,0.7294227611407937,0.7145248565884045,0.6853537476079969,0.6206241187913392,0.5992360396269081,0.6295209685388949,0.6383329406276533,0.5877284998059699,0.6221159714634225,0.6455161863419006,0.7089110259733756,0.7227504584741145,0.6839295350773904,0.6602074900333849,0.7086625003313045,0.7302542612258119,0.7276460704973301,0.7433319157091934,0.7877622030942304,0.7769234539216932,0.7881755922139124,0.8363686150751046,0.8091025593533213,0.821171153703448,0.8393879494918202,0.8408161206867867,0.859457628976102,0.8893229743557285,0.943762537084063,0.9789578084437461,0.9882384985931086,1.0,1.0,0.9450210765198017,0.9994060584073321,0.9697011600543916,0.9780901522556105,0.9298727418904984,0.9303663768118988,0.9244476253660274,0.9200442771229125,0.8653751871274625,0.787417900791234,0.7241567720343957,0.6935952340531777,0.6716050158571293,0.6582253339823951,0.6407279955083551,0.6247294371018447,0.658862600098381,0.6383803295395838,0.6091552009531822,0.6104581157662771,0.6454985913309166,0.6673276774113897,0.6372758439483656,0.5657214414128399,0.5607525999188994,0.603473387935391,0.6238090351066815,0.62843652053031,0.6287669726458521,0.573086126178788,0.5069924006390203,0.4813746430032656,0.5090123076870618,0.5507669933122077,0.5407844766084898,0.5423172495897125,0.5543303009447248,0.5842844505135192,0.6056965408744354,0.5872998310350586,0.5121427801508814,0.47760435973900395,0.4581412242811824,0.46183090454451725,0.4968181488156546,0.5283760754818111,0.5445879442946018,0.5550031448757591,0.5501938623853114,0.5576414226152632,0.5835709836272139,0.6439895926834842,0.6694826334820196,0.6978474405663042,0.7486573484847001,0.7616176058195026,0.744789165215994,0.6474697131507634,0.5767311432641126,0.4822704693162713,0.3491731721291213,0.22802294563514838,0.23672612392854656,0.23703508560345948,0.26705656150172585,0.3191705308551604,0.3732897844465221,0.47177085842897476,0.5264699192067641,0.4953905908104629,0.41713903993185864,0.3197125968341763,0.19131831812711464,0.19934479179691061,0.18176205167768056,0.1353352844912959,0.11315515198968551,0.15064011639245134,0.1439552839031225,0.02070611976167902,0.01664944041284988,0.04152426570472717,0.10229205875571495,0.266588838466001,0.4007509713093818,0.4374014177084033,0.429826806054435,0.44947429639407016,0.4697929911618842,0.5109031070603534,0.572215170913203,0.5938477921438015,0.6125764002434624,0.5986391583895424,0.5977715496447656,0.6034849708047633,0.5501628914162657,0.46984547880480176
0.5277743381621797,0.6558502433873903,0.5635343358617124,0.46579473420467105,0.23724422044804122,0.16379834582374253,0.040611919903093874,0.0,0.06487419573382935,0.2247419812771586,0.40434316595254627,0.4776137317545507,0.44365565305180543,0.542018126412576,0.6240049466798431,0.6252442118569127,0.5815397400542154,0.6170582348154898,0.6219063903235691,0.6593145538816434,0.6914069836642495,0.6947511646310137,0.6641025014402665,0.6703833275047576,0.6622854225845167,0.6642093852332028,0.6684391163220964,0.663522134089469,0.653847766477833,0.6650032108195422,0.6816750266215748,0.6427535504876233,0.6538462344768091,0.634659366417708,0.5441643336807872,0.5611209679362325,0.5354065649373254,0.5295822623797702,0.5768949172664017,0.6750457275273082,0.7180186340367679,0.6804943166063272,0.6344964576634505,0.6829273261820956,0.6461235982071728,0.6003060045839694,0.551324016124896,0.5527826241709908,0.6070374630401042,0.6304153446326849,0.5861956447579759,0.5886721593065082,0.5649812169091195,0.5797849359948488,0.5561521671070555,0.5690070037720889,0.5706488215095642,0.5927792219572192,0.6973973562029183,0.6891138334059317,0.6720805883250904,0.657039824920863,0.6997679542259007,0.7049175493911941,0.6956349007179154,0.6448313524982683,0.5962097991491607,0.6472519729360926,0.657734962415822,0.6705380051008308,0.7083315203809663,0.6247893412362944,0.5872736328593529,0.5772534355558004,0.6039153470725698,0.6184972436131755,0.602414578364392,0.6083494388876639,0.6343130431388203,0.6611677242168588,0.6991817678070605,0.674666494035967,0.6105144265556428,0.6164461571768884,0.5553964693448865,0.514578220479306,0.5629783418317839,0.6180102417379022,0.6452025921904548,0.672055681376193,0.6419416033178309,0.6142977746873317,0.6388558341499928,0.6562844000896786,0.6073243233656015,0.5957694879478822,0.6143396130815735,0.6532042277150555,0.6510132303284673,0.5575354957966127,0.5093637645223851,0.5014231911452691,0.4572886112859752,0.4225473739348288,0.46680156550598956,0.4753691371644154,0.524817015751285,0.5361184489281408,0.5721093667510474,0.627754237302429,0.6211051668684592,0.5468844181794338,0.5139245759041703,0.5260789754186151,0.4849974607974164,0.567112234964172,0.6224422309015222,0.6640140039749085,0.6807949091118621,0.736725590234388,0.7653309410786147,0.776000641166153,0.7945761520336887,0.7891998706789445,0.8051089861141094,0.819297685451847,0.8275990242538425,0.8211258115327329,0.7745441187891504,0.7497196677117401,0.7048765494628396,0.6751177138118551,0.6827533855580955,0.6555068533370711,0.6171579547642904,0.5481908925507285,0.5219753989247247,0.5335084238036418,0.5071844826545723,0.4015148636501405
0.5699008822133071,0.6328516411463515,0.554143583617426,0.5240684767848436,0.46242344398952606,0.4537917353336419,0.35112856120127467,0.32248351236825634,0.3285568203873752,0.3668725821775936,0.4156256442914293,0.44890434686377817,0.4724085803646916,0.5103016324776377,0.5310842613351426,0.5481548427083723,0.5334600577425791,0.6171580507088453,0.6736676646626066,0.706742163148706,0.7071037467889214,0.691355168250644,0.6952149976452555,0.7312574443291431,0.720980594569027,0.7154889414766162,0.7051953369379711,0.7113430610109714,0.7007997328203895,0.6930499974927068,0.7284488102741592,0.7071154316353683,0.7166622286263616,0.7052637643512988,0.6337970672102474,0.6500859962372751,0.6686780316216374,0.6852518051006402,0.7059250155884004,0.7694739189870635,0.8002871535904219,0.7861114047821166,0.7373697030971206,0.7935942965920393,0.7593869404660839,0.7258764856131341,0.6858707608666329,0.7066352504721454,0.7331867444543574,0.7386850476202762,0.6903615594185722,0.6467860261899472,0.6231154501886418,0.6252005370537038,0.6165950666353033,0.6083897408002735,0.6145263417927289,0.6415250477182202,0.7066056367207849,0.6958712806820728,0.6777129629071664,0.6773711216656274,0.6865245109020186,0.7046670052658293,0.6989299826286378,0.6442717504961577,0.6344501794221585,0.677202453590139,0.7037212557948399,0.7076515919235253,0.7148647003215611,0.6878591321476991,0.653681834733154,0.6438069192679519,0.6774931747092574,0.7063890501344166,0.6627026099698633,0.6578535592447621,0.67766895704761,0.7163334849238858,0.7528983301624639,0.7293667118727887,0.6487681904711157,0.6344900225584177,0.6046631799046984,0.5810105233341314,0.6073964278730339,0.6548393684114742,0.6823549822456628,0.67735413278082,0.6384220998236734,0.6437333402281379,0.6740042955298099,0.6743901577511774,0.6332883881398077,0.6378979792862036,0.6728299318256181,0.6794642381445616,0.6904439805349093,0.624932350807503,0.5947903115341181,0.5800173179406845,0.549835183016987,0.5270544137780858,0.5691216094319532,0.5542291635969383,0.5898018742307196,0.6460599748385814,0.6730619648081867,0.7013372003474996,0.6910144859986741,0.6329247136843594,0.6011788903914485,0.576298730471846,0.5373594767523219,0.6022914747868616,0.6646065159056049,0.7142069066643154,0.7098600911006177,0.7044601722626592,0.6826566329785747,0.6388180983261815,0.5904802093729774,0.5341570509220934,0.5321418460346976,0.5996192490785367,0.62984354370399,0.5841094601468019,0.49404046812576347,0.42897256977293496,0.3344970368838416,0.2578730916168052,0.2044033554424351,0.10001012546330446,0.06195120900946682,0.12356232476392903,0.2215337365077384,0.40077384571862795,0.4520511763711686,0.4435445968788373
0.3391583909623677,0.3342437757323447,0.2037846204676415,0.259324126499324,0.26231261686151,0.33303006034226773,0.3792627043715513,0.462498912810412,0.5065166302322586,0.509202368580979,0.5621307671914035,0.5939894454468314,0.536016026402602,0.513309443540313,0.5413117330157232,0.5421301763014639,0.490759575257823,0.5392277449980518,0.5597381251242713,0.5993064493307518,0.6190805302342145,0.6213191307092463,0.5818008454012922,0.5936005077683105,0.6119434187644274,0.6104358703288387,0.5832628450458048,0.597927689914238,0.5953218339023643,0.5785457601860218,0.6152681308841597,0.5844329480710034,0.5804194550510896,0.5649829389204319,0.45488853975729837,0.48469516389815276,0.468322292995463,0.4757709350672021,0.5184533178013154,0.6098804366188534,0.6862099803280141,0.6614538743387394,0.5862193373565794,0.6390901105424659,0.5940033624059832,0.5451457046521382,0.5066188766003312,0.5423701092867876,0.567778638838426,0.6207222026828929,0.575081971094259,0.5274524953184121,0.5034941132785415,0.5320594111344962,0.5404188128001655,0.5417187338863275,0.5603515628607143,0.5898422911347858,0.6684517212013151,0.6656016465092914,0.6544893588063246,0.6427802297480963,0.6641268402182868,0.6942924019774493,0.6575534056890656,0.6142948739238876,0.6085658659640147,0.6308280590551648,0.6670085581546529,0.7011982655265094,0.70528059773202,0.6498408847300764,0.5733769305013439,0.5921132946653314,0.6265713285505151,0.6592418142331392,0.607976243146085,0.6011882614759553,0.6145018738148746,0.7017223187805757,0.7173088155819709,0.7159850688252908,0.640235763354029,0.6056985141356308,0.5949963345291982,0.5856310407533954,0.6334987332123685,0.6850459845233365,0.7354645288966537,0.7435601623979824,0.7293218087803357,0.7300356315178673,0.727861972074558,0.7287078184056062,0.6788546037565797,0.678575847584251,0.7230894716882752,0.7547822099855865,0.7582843004738,0.6838298198253242,0.6955007727997189,0.7073910610753797,0.6674798967227926,0.5916114232175433,0.5941632306787168,0.5491653939574141,0.5745547552702004,0.6385306793895135,0.6388865936728066,0.6720131444434226,0.655072730115614,0.5972939805828851,0.5570922152370938,0.5525275460733989,0.5208051863586675,0.5694512842436751,0.6306610733135226,0.6477811609518652,0.6467257851216861,0.6555051722881347,0.6686957048843981,0.6314079765419665,0.6245416664547603,0.6304034605277503,0.6786525369434794,0.7677200247258601,0.8005418084801355,0.7868895328372251,0.7667168872807885,0.7826650026000037,0.7712098438833016,0.7463940035736394,0.7329273049306915,0.6906728628339388,0.7003336135421167,0.6961011133006157,0.6121231210749851,0.5315366558596885,0.4118986799673151,0.27660143927116054
0.44704547175620635,0.44700456273542666,0.362650047358827,0.3494260034049656,0.34027997804142507,0.3993059870978589,0.33753947263469974,0.3489189267987136,0.4172606306312097,0.5017475866945673,0.5707567223727423,0.5785910244560584,0.5300586482833368,0.5411552796526858,0.6017531636478952,0.6620489567593066,0.6605713803229777,0.7102844862637538,0.7142615155756753,0.7544717591531995,0.7653141195823173,0.746698474716588,0.7229587005433544,0.739921324768693,0.7465991431761142,0.7334741474395277,0.7277956508815437,0.7543592927288864,0.732242797912508,0.7230003294145471,0.7594398857723053,0.7287822071335053,0.7435278582586304,0.744848470170613,0.6778532992980517,0.6702504844301002,0.6661091116232102,0.6963663775918769,0.7379113179458767,0.7786265633930752,0.8087228991836053,0.8136428249243046,0.7555262325694625,0.7974322745077765,0.7632802186740015,0.7317419565507561,0.6887006396024012,0.6952639580724846,0.7241788529872847,0.7464094024423562,0.7087790186853771,0.6733089345745971,0.6384187276895517,0.624118290958988,0.6213001056220361,0.6141966302276091,0.6143758247635761,0.6452671221904756,0.7066935337991136,0.6968122721673292,0.684763362579469,0.6723069980153931,0.6700372767761064,0.692609824346884,0.6897435850055834,0.6340351630625592,0.624966168061691,0.6653503095340882,0.6872314117748746,0.6942637161851678,0.7047160565194429,0.6623464729006259,0.6130054737348551,0.6147736746189669,0.6509862062067523,0.6734073187521613,0.6600998034344527,0.6664027782940494,0.6858873562875947,0.7264799207949586,0.7458539922784243,0.7450417240924114,0.6728248864684565,0.6127897037813806,0.5788147465188528,0.5769333868409705,0.6100155855989776,0.6584130557408048,0.6654918790500668,0.6610443726418074,0.6346234438090156,0.6198359448510928,0.6480102918505031,0.6682384773438731,0.6309100158348102,0.6299364130726186,0.671077866040082,0.6950552365189402,0.6986585979489653,0.6171392096134466,0.5929528144024643,0.5823818864018611,0.5369799846813834,0.5085269362006746,0.5670383939885827,0.5547021948323231,0.5851075382390107,0.6349294113950578,0.6497711304843319,0.6874002046623702,0.6877204787379463,0.6168071934831768,0.5798800996396405,0.5609078944751507,0.5061775175786134,0.5544699474206195,0.6101147838495833,0.6530486754846098,0.6381449627365728,0.6389518757265575,0.640296100476403,0.5970951778361727,0.5560828224165684,0.5259545389401662,0.5322545931835283,0.6066512794856292,0.6451803342226962,0.594406559417956,0.4987624377202481,0.44068082702141054,0.36086071399169417,0.30332829215588125,0.26611349728655503,0.1815167594690818,0.14237161417256966,0.1510520167028011,0.2229047132940239,0.394495188933773,0.42102541160426465,0.4444289483805421
0.516439705189665,0.5098086834450974,0.4143922252222434,0.38455004430927237,0.35495303504333753,0.3912801750398221,0.3182033112921825,0.29557701924116686,0.3211509600803879,0.3990486636851026,0.4747427880769093,0.5279349557341355,0.5161783093687486,0.5043669463296373,0.5563306513466474,0.6203459836199636,0.6074619188441097,0.6630668826155055,0.6918393347857136,0.736406146620362,0.7340266135275176,0.7084742690520239,0.7011361440387833,0.7256432528572816,0.7267255775239478,0.7222735758743362,0.7245144032829091,0.7589295511783006,0.7460364990230122,0.7251067769645196,0.7464652662982822,0.7258408884118546,0.7462893514179185,0.7397224993034036,0.6788415239960128,0.6760521753005391,0.6645739676265168,0.680147765934748,0.7056820574507192,0.77000745009667,0.8121008840904796,0.7999663337872955,0.743515634522227,0.8028333316205173,0.7634183779175973,0.7184809724947493,0.6784856609331533,0.6947488062625944,0.7251763705135796,0.7438425503280397,0.6932007129148403,0.6378226138384462,0.6105869164492473,0.6126678895574826,0.6070329728175865,0.5998344382494759,0.5998705033638779,0.6211509279558033,0.6843715830890572,0.6763470965517041,0.6594512489705064,0.6591694414482412,0.6760119279953316,0.6909311860472082,0.6732102290722164,0.6129667089868707,0.5990991413874104,0.6458719167482191,0.6865960641262269,0.6954577389772464,0.6975708026795159,0.6654924341888996,0.6259799633853922,0.6185876545963181,0.6505099304854651,0.6828935728033211,0.6613437016806512,0.6504358704874956,0.664245024531602,0.7253641321083577,0.7591638541368708,0.7366605315343604,0.6753507825773065,0.6410458613939854,0.6079904633581765,0.6141728183073027,0.6270738883073499,0.653223343395112,0.6854406552073203,0.6825306727523786,0.6458051705750123,0.643717095229754,0.6606409441061234,0.686169883977614,0.6584538169209027,0.6332319654541666,0.6742880057305222,0.7075427826355188,0.6998154508955445,0.6277387591982713,0.6115500353105233,0.6017001943292417,0.5609735092516562,0.5171904795703558,0.5829927813167187,0.5988386979752783,0.6207247907250324,0.6615831706667503,0.6864868342201023,0.7063626192033833,0.6948718309100129,0.6356417923579559,0.600288586188334,0.5836870314743305,0.5392533716799013,0.5774800998621696,0.6121045948059491,0.6453994055585882,0.657135577429483,0.6723152833617587,0.6498269970418962,0.5914124097649381,0.552538368885392,0.531427009937885,0.5463380858373063,0.6066054204139888,0.6472303044780027,0.6144530629242069,0.5336455692910489,0.5053860726503249,0.43404606010388025,0.35563726581320393,0.33010770741676304,0.2583961534848255,0.20221662456424716,0.14769767916498,0.16005034345032132,0.32332068301535866,0.34924891814834896,0.42661772240637363
0.5501054731691786,0.5520292556823787,0.43509320515358285,0.4082962868603938,0.35748021815021663,0.3741424358948273,0.2886429096754856,0.2696324037651827,0.3050023535683449,0.3667730639158353,0.4343976848004405,0.49928675466387495,0.5098894505621895,0.5098062864024252,0.5394954165314612,0.5832575910905988,0.5974680934522373,0.687104374393311,0.7071738881375581,0.7390789295175503,0.7531896923567829,0.7402030330336243,0.7231706284502741,0.7390435881225167,0.7437010319589628,0.7461292766255494,0.7477714990650807,0.7631569382967658,0.7453531154789073,0.7453201988120972,0.7677333072367226,0.7347973453464354,0.7512494667977455,0.7394669186780938,0.6834178300401176,0.703408848108162,0.7030489217629633,0.7094274058421797,0.723641350512832,0.7759427891077448,0.8158766102971595,0.8093693833448378,0.7530244103611362,0.8097076842701384,0.7790124543425431,0.7444592113840742,0.7020334004906582,0.719853320992227,0.7441667352605142,0.7547071374865071,0.7109385231036296,0.6683503747724406,0.6449303435454882,0.6409439962423251,0.6264465769823994,0.6112164691817461,0.6096048564487987,0.6428720632220734,0.7100116693536802,0.6908649560237647,0.6652966538214946,0.6609116431206529,0.6840924786938926,0.7071705492195116,0.6769007155184638,0.6168506479426269,0.6344174199787826,0.6752501802508177,0.6942962903286676,0.7096932725829544,0.7179575380922774,0.671145372014516,0.6115935236556483,0.5862454643678986,0.6212991040172036,0.6726950729444735,0.6462790222442456,0.6319861613167626,0.6560339166248628,0.713114169080482,0.7482061312774051,0.7255015630959221,0.6484635470902881,0.6292884989999932,0.5980397321608799,0.5811418307198197,0.6194214805268596,0.6649542945591006,0.679733901875832,0.6860512651222926,0.6650083352149819,0.6509577146862311,0.6608651068001113,0.6821789982386921,0.650054972960274,0.6400804560285038,0.6820016526217925,0.6992228140588747,0.693404762445784,0.6185185282077451,0.5989613261584604,0.5924756337385677,0.5513087707702413,0.5128086413466959,0.5573538468049293,0.5543037089967798,0.5980566869200004,0.648313277537234,0.6592784191220353,0.6902181375279044,0.6946523743097065,0.6205939661745002,0.5575879885573614,0.5378080128916163,0.5074232051718216,0.5690799431684189,0.6224544160456672,0.6468383893992957,0.6335166937859734,0.6491873580713813,0.6456000106374626,0.5975679816776426,0.5598110984319287,0.5402778745570996,0.5536013978812,0.6003797199584436,0.608473890815781,0.5393601510974126,0.43649900414900206,0.3768551695474836,0.29328382569207173,0.2536249660018098,0.2325456087495083,0.1559266529496378,0.149236993771926,0.20325875070568838,0.29912060035380095,0.46116034017442764,0.4729222830683935,0.4628261336427967
0.4962765112589031,0.4653722492547537,0.3015403122590083,0.30256107924841824,0.2960465707792332,0.32348205143291625,0.2924519338800056,0.28946354308901695,0.3657736602253552,0.4980906713001698,0.5734314145280128,0.546288099983978,0.50163510986744,0.5512950065804908,0.6468443538157468,0.654667790639341,0.5911452919562075,0.6440525244698132,0.6487507850724096,0.7009204321274737,0.7225977002854201,0.7013567621632255,0.6831470715703714,0.6965789451627059,0.690010794527735,0.6919930714012471,0.6791132600722617,0.6974718025186369,0.6960203439341592,0.6666392798355065,0.7100554732643929,0.6965893243955736,0.713237589092083,0.690893256309663,0.6169938204281132,0.6329294750470462,0.6065115979888125,0.6322492751790194,0.6505487232485394,0.7172687017762632,0.7700262373092791,0.7578658078832572,0.7053519757904483,0.7548724457688433,0.7126352629807874,0.6620246243955631,0.6211798330258891,0.650204581613802,0.6621453369987391,0.6749722347375546,0.6392275979480315,0.5959408199541942,0.5765062535313942,0.5758337555551566,0.5575083101776585,0.5496677637640038,0.5602435659560177,0.585816753597435,0.6722671470268183,0.6806473666398448,0.6556402982280586,0.6459915263706841,0.663235441331896,0.6980136357624162,0.6939500395758617,0.6431496145476612,0.6552504522657536,0.6848687737007325,0.72130804774268,0.7370927310317825,0.7429498223643638,0.7045590387394195,0.6558093019866051,0.6670818728419317,0.7053087179592097,0.7100065819280303,0.6718895815825212,0.685833441113884,0.6843982531170448,0.7373982674682822,0.7566250722097846,0.7312897917196359,0.6710755568382265,0.6102435065578093,0.5828566206343407,0.5602312185263107,0.5948205549705644,0.643538532857018,0.6482026108374475,0.6535073292851863,0.6290173572880344,0.6184673103717264,0.6406604311927673,0.6588705444455911,0.6317127832438906,0.630339153680976,0.6607914799492606,0.6926561752505531,0.6959765698836589,0.6203294020252331,0.6092271843047044,0.5837937043184585,0.5453178963831111,0.5337066117209862,0.577291557275325,0.5642217759173218,0.600648844806834,0.6466388592264465,0.6713736535136063,0.7106626558167364,0.7169538563199036,0.6542026617790737,0.6110065105753564,0.6084777006488596,0.573671555076766,0.6232903820755713,0.6723945498649647,0.6967007517030523,0.6921191807191814,0.7006674991594953,0.677236787544827,0.6297304540270217,0.6114527805691525,0.5978135586448918,0.5833506304337277,0.6125254396385968,0.6384001812382386,0.6176784943541045,0.5788372032374444,0.6193616275811944,0.6640328475811238,0.626314928180574,0.5946001140138634,0.529512054783271,0.4117453852039764,0.36826172256035133,0.25141120003672324,0.2583147249229628,0.16084529477728737,0.2167241797110342
0.5318473729399951,0.5088743748996458,0.34535973191108266,0.33318906866486037,0.33451916010962224,0.3548768611002069,0.30807018556771093,0.30188186038296194,0.33266547826958764,0.43530651682557997,0.5256606278856558,0.5551338991504111,0.4993075749721163,0.5032496182134276,0.6126962071152542,0.6623998960667654,0.6017523832893585,0.6388760032554316,0.6632654763029602,0.7096667417996231,0.717423317340764,0.7077402649596627,0.7020934755747775,0.7104610357890124,0.7084135844438462,0.7027629922946468,0.6970424575957004,0.734208130211874,0.7110635057624584,0.6971101177424501,0.7384984623324508,0.7032428724754115,0.7067932412759513,0.6849661212852554,0.6035388160264692,0.6234003680554552,0.627179048627354,0.6395883936571334,0.6621429341242424,0.7214867005574659,0.7721058633999633,0.7751599082004944,0.7122566671336765,0.7633925390536512,0.7287782223586261,0.6925661983218135,0.6526347054764834,0.6582137501690067,0.6901651943224022,0.7107392131041355,0.6663898202579835,0.612537329225129,0.5912272643898491,0.5963627680795711,0.5837400632378927,0.5823139878231754,0.5853082267961985,0.608231534647731,0.6802694205060472,0.668957613687117,0.6559711490751311,0.6588059184065314,0.6724252388937255,0.7066998608524353,0.6952586108234083,0.6381640871343335,0.6387201900834544,0.6743995449797241,0.7346466115110906,0.7369587188306241,0.7251212740579621,0.719747727427099,0.6853300939367393,0.6940440636041592,0.7367823925684461,0.7394652254534253,0.7081074844639927,0.6995220229611611,0.6926584155623376,0.7279368603287093,0.7537975314486898,0.7345142363148434,0.6703103885951525,0.6339730686557946,0.6066641405243749,0.6151420874775592,0.6106641126622284,0.6477959703213454,0.6825821247712742,0.6670659940507251,0.6296314056989089,0.6191759031740471,0.6585600351478764,0.65566297399896,0.6264038859850589,0.6320096297026148,0.6584713424278741,0.6871391044627091,0.6863150562331362,0.6168422935891136,0.5885298610202715,0.5489542053413698,0.5456846822093128,0.5385876589179097,0.567818356890602,0.5653593992060311,0.5868505744226428,0.6402571063642248,0.6764399591622047,0.7021316939204629,0.6999905436893197,0.6406601319460368,0.6127907994781465,0.6219792317891221,0.5880706742582484,0.6234884069423606,0.6515387271944424,0.6601027723744504,0.6588821161124983,0.6905062367181618,0.6996864789738861,0.6609493384527898,0.6067840436394354,0.5754189615808014,0.5687713104727172,0.6226910452736487,0.6851733110774882,0.672709160694193,0.5965887101252791,0.5618709427898924,0.49442037439222103,0.4036505435682365,0.368654889371408,0.28303488834795654,0.1740122940353791,0.17496052453355826,0.16332584829015723,0.32082667598165165,0.3773899845015935,0.3878305636515485
0.5305465903392629,0.5316588469086484,0.36437830385465464,0.39118162043340643,0.36902598209035126,0.4131422395255296,0.3712257696003221,0.36547274240943,0.45916137555427006,0.5452368270605183,0.5477681687260557,0.5267179342093538,0.5108319815676319,0.5432733590090908,0.5697988491548424,0.5664894196408743,0.513716605681267,0.571289940474313,0.5903043059888183,0.638153690305191,0.648172663497818,0.6354031209063529,0.6093934562644298,0.6253908185127511,0.6411932690212537,0.6259542781001118,0.6095077096387029,0.6302087929381806,0.6121583517738969,0.6043724863305551,0.6474208654529946,0.6291368257037687,0.6450861645011425,0.6084783026992243,0.5035672418039724,0.527359997574193,0.5102294328454966,0.5440013886028614,0.5517552270822784,0.6434505624389473,0.697981600229067,0.6934074513730505,0.6330226327635473,0.6806154376388377,0.6439733400747537,0.5822811369872474,0.5519024032930848,0.5585339683167244,0.5975533956335537,0.6246842497211481,0.57533600000306,0.5470900438340415,0.5270077825361329,0.5322891929249791,0.5301121134585989,0.5290761146113694,0.5412232065946829,0.570798195549797,0.6545242995510816,0.6553332698039679,0.6398967003318862,0.6275015170691383,0.648468923993103,0.6786126076173195,0.6772680855912016,0.6191050064503777,0.6105641544367066,0.644360563107302,0.6426899795292618,0.6651973305788149,0.6770452756242374,0.6193522503001697,0.571896624121283,0.5749161139897774,0.5796011532524983,0.6058668224384272,0.5842791989350006,0.5774915738099032,0.5967800059098174,0.6411831992382203,0.6743395050722347,0.6390790314492313,0.5835476328872216,0.5544015641612556,0.5160606950858395,0.500799225680246,0.5450072895908076,0.5676368955354412,0.5919597620052939,0.6017023050683192,0.5584877862603448,0.5717683821871489,0.575496616941603,0.6058181256733232,0.5921115833449373,0.5738411076045268,0.6150892207058386,0.6392016857174161,0.6407671323259355,0.5566442761387526,0.5323342522273022,0.5070721283390008,0.4678422086639662,0.443788091081732,0.501138715601854,0.5079910201443445,0.5342970322612183,0.5968912045298498,0.6305247923198535,0.6670261486942013,0.6901540519274457,0.648207644034665,0.6268978909549459,0.6623157986068924,0.6489149983392473,0.720275873901869,0.7904052116665059,0.8662481182466408,0.8640126547814073,0.8696715271576603,0.8767384874860723,0.9085942048642219,0.898399363230284,0.8828073136782939,0.8867960747686641,0.9146967562800777,0.92257587851777,0.8818690047241399,0.7925714968427541,0.760300503677067,0.6836918768415355,0.5777511781555902,0.5515737252211927,0.5010288080717357,0.4831775796000363,0.4521011724085249,0.3557981104268757,0.34240955248162314,0.32721799235577537,0.26178214109185116
